  -3.4755372e-05  -3.5985630e-04  -1.8576434e-03  -6.4791957e-03  -1.7427540e-02  -3.8985154e-02  -7.6087980e-02  -1.3377877e-01  -2.1664084e-01  -3.2828490e-01  -4.7093782e-01  -6.4516256e-01  -8.4972163e-01  -1.0815808e+00  -1.3360392e+00  -1.6069642e+00  -1.8871073e+00  -2.1684742e+00  -2.4427233e+00  -2.7015642e+00  -2.9371347e+00  -3.1423374e+00  -3.3111229e+00  -3.4387114e+00  -3.5217446e+00  -3.5583639e+00  -3.5482159e+00  -3.4923925e+00  -3.3933154e+00  -3.2545791e+00  -3.0807596e+00  -2.8771978e+00  -2.6497670e+00  -2.4046329e+00  -2.1480201e+00  -1.8859921e+00  -1.6242543e+00  -1.3679855e+00  -1.1217020e+00  -8.8915564e-01  -6.7327000e-01  -4.7611373e-01  -2.9891151e-01  -1.4208767e-01  -5.3366839e-03   1.1228612e-01   2.1225942e-01   2.9648144e-01   3.6715083e-01   4.2664826e-01   4.7742445e-01   5.2189858e-01   5.6236896e-01   6.0093643e-01   6.3944186e-01   6.7941925e-01   7.2206616e-01   7.6823180e-01   8.1842167e-01   8.7281548e-01   9.3129512e-01   9.9348017e-01   1.0587692e+00   1.1263853e+00   1.1954225e+00   1.2648927e+00   1.3337721e+00   1.4010441e+00   1.4657372e+00   1.5269575e+00   1.5839196e+00   1.6359815e+00   1.6826834e+00   1.7237891e+00   1.7593236e+00   1.7896071e+00   1.8152794e+00   1.8373073e+00   1.8569603e+00   1.8757414e+00   1.8952662e+00   1.9170926e+00   1.9425206e+00   1.9723981e+00   2.0069742e+00   2.0458338e+00   2.0879227e+00   2.1316522e+00   2.1750547e+00   2.2159628e+00   2.2521858e+00   2.2816706e+00   2.3026361e+00   2.3136802e+00   2.3138525e+00   2.3026939e+00   2.2802416e+00   2.2470040e+00   2.2039112e+00   2.1522471e+00   2.0935697e+00   2.0296251e+00   1.9622585e+00   1.8933297e+00   1.8246337e+00   1.7578307e+00   1.6943880e+00   1.6355332e+00   1.5822211e+00   1.5351143e+00   1.4945801e+00   1.4607020e+00   1.4333036e+00   1.4119797e+00   1.3961322e+00   1.3850082e+00   1.3777404e+00   1.3733878e+00   1.3709769e+00   1.3695395e+00   1.3681484e+00   1.3659480e+00   1.3621819e+00   1.3562152e+00   1.3475507e+00   1.3358363e+00   1.3208650e+00   1.3025677e+00   1.2810024e+00   1.2563405e+00   1.2288491e+00   1.1988707e+00   1.1668010e+00   1.1330670e+00   1.0981055e+00   1.0623446e+00   1.0261866e+00   9.8999378e-01   9.5407659e-01   9.1868692e-01   8.8401574e-01   8.5019552e-01   8.1730520e-01   7.8537567e-01   7.5439489e-01   7.2431300e-01   6.9504832e-01   6.6649421e-01   6.3852588e-01   6.1100664e-01   5.8379346e-01   5.5674266e-01   5.2971607e-01   5.0258767e-01   4.7524957e-01   4.4761628e-01   4.1962622e-01   3.9124137e-01   3.6244638e-01   3.3324805e-01   3.0367449e-01   2.7377275e-01   2.4360447e-01   2.1324052e-01   1.8275615e-01   1.5222779e-01   1.2173133e-01   9.1340810e-02   6.1126292e-02   3.1150786e-02   1.4672580e-03  -2.7883230e-02  -5.6872069e-02  -8.5482765e-02  -1.1371037e-01  -1.4156062e-01  -1.6904770e-01  -1.9619011e-01  -2.2300604e-01  -2.4951020e-01  -2.7571290e-01  -3.0162029e-01  -3.2723418e-01  -3.5255142e-01  -3.7756309e-01  -4.0225455e-01  -4.2660642e-01  -4.5059591e-01  -4.7419706e-01  -4.9737922e-01  -5.2010538e-01  -5.4233253e-01  -5.6401462e-01  -5.8510655e-01  -6.0556690e-01  -6.2535871e-01  -6.4444970e-01  -6.6281319e-01  -6.8042986e-01  -6.9728987e-01  -7.1339429e-01  -7.2875501e-01  -7.4339318e-01  -7.5733724e-01  -7.7062227e-01  -7.8329070e-01  -7.9539312e-01  -8.0698747e-01  -8.1813713e-01  -8.2890920e-01  -8.3937415e-01  -8.4960586e-01  -8.5968092e-01  -8.6967664e-01  -8.7966831e-01  -8.8972653e-01  -8.9991466e-01  -9.1028641e-01  -9.2088368e-01  -9.3173525e-01  -9.4285636e-01  -9.5424893e-01  -9.6590195e-01  -9.7779211e-01  -9.8988474e-01  -1.0021347e+00  -1.0144874e+00  -1.0268806e+00  -1.0392476e+00  -1.0515201e+00  -1.0636297e+00  -1.0755077e+00  -1.0870850e+00  -1.0982925e+00  -1.1090638e+00  -1.1193374e+00  -1.1290586e+00  -1.1381794e+00  -1.1466582e+00  -1.1544603e+00  -1.1615595e+00  -1.1679399e+00  -1.1735969e+00  -1.1785362e+00  -1.1827731e+00  -1.1863314e+00  -1.1892435e+00  -1.1915502e+00  -1.1933002e+00  -1.1945472e+00  -1.1953476e+00  -1.1957573e+00  -1.1958298e+00  -1.1956132e+00  -1.1951460e+00  -1.1944536e+00  -1.1935461e+00  -1.1924176e+00  -1.1910498e+00  -1.1894150e+00  -1.1874800e+00  -1.1852095e+00  -1.1825680e+00  -1.1795240e+00  -1.1760529e+00  -1.1721399e+00  -1.1677803e+00  -1.1629778e+00  -1.1577413e+00  -1.1520835e+00  -1.1460218e+00  -1.1395795e+00  -1.1327839e+00  -1.1256639e+00  -1.1182459e+00  -1.1105527e+00  -1.1026032e+00  -1.0944147e+00  -1.0860026e+00  -1.0773809e+00  -1.0685592e+00  -1.0595412e+00  -1.0503238e+00  -1.0408971e+00  -1.0312453e+00  -1.0213480e+00  -1.0111813e+00  -1.0007197e+00  -9.8993900e-01  -9.7881888e-01  -9.6734540e-01  -9.5551120e-01  -9.4331498e-01  -9.3076160e-01  -9.1786377e-01  -9.0464399e-01  -8.9113476e-01  -8.7737628e-01  -8.6341231e-01  -8.4928542e-01  -8.3503279e-01  -8.2068349e-01  -8.0625764e-01  -7.9176616e-01  -7.7721053e-01  -7.6258298e-01  -7.4786717e-01  -7.3303899e-01  -7.1806680e-01  -7.0291221e-01  -6.8753232e-01  -6.7188420e-01  -6.5593156e-01  -6.3965190e-01  -6.2304225e-01  -6.0612220e-01  -5.8893447e-01  -5.7154341e-01  -5.5403217e-01  -5.3649898e-01  -5.1905238e-01  -5.0180502e-01  -4.8486568e-01  -4.6833102e-01  -4.5227985e-01  -4.3677279e-01  -4.2185686e-01  -4.0757145e-01  -3.9395246e-01  -3.8103424e-01  -3.6884948e-01  -3.5742690e-01  -3.4678614e-01  -3.3693118e-01  -3.2784400e-01  -3.1948036e-01  -3.1176887e-01  -3.0461344e-01  -2.9789772e-01  -2.9149017e-01  -2.8524900e-01  -2.7902735e-01  -2.7267865e-01  -2.6606109e-01  -2.5904089e-01  -2.5149439e-01  -2.4330989e-01  -2.3439041e-01  -2.2465767e-01  -2.1405665e-01  -2.0255834e-01  -1.9015930e-01  -1.7687953e-01  -1.6276063e-01  -1.4786548e-01  -1.3227872e-01  -1.1610684e-01  -9.9478013e-02  -8.2542863e-02  -6.5475449e-02  -4.8473050e-02  -3.1753488e-02  -1.5547599e-02  -8.2485662e-05   1.4447681e-02   2.7921809e-02   4.0337335e-02   5.1855598e-02   6.2843714e-02   7.3907451e-02   8.5904039e-02   9.9921663e-02   1.1721613e-01   1.3910246e-01   1.6680684e-01   2.0129291e-01   2.4308629e-01   2.9212953e-01   3.4769802e-01   4.0839357e-01   4.7221560e-01   5.3669767e-01   5.9909033e-01   6.5656775e-01   7.0643440e-01   7.4631101e-01   7.7428484e-01   7.8901706e-01   7.8980537e-01   7.7660312e-01   7.4999830e-01   7.1115761e-01   6.6174328e-01   6.0381062e-01   5.3969367e-01   4.7188527e-01   4.0291731e-01   3.3524654e-01   2.7115279e-01   2.1265475e-01   1.6144565e-01   1.1884897e-01   8.5793064e-02   6.2804691e-02   5.0020555e-02   4.7214272e-02   5.3834741e-02   6.9052548e-02   9.1812050e-02   1.2088758e-01   1.5494260e-01   1.9258994e-01   2.3244978e-01   2.7320145e-01   3.1362657e-01   3.5264339e-01   3.8933288e-01   4.2295668e-01   4.5296648e-01   4.7900502e-01   5.0089957e-01   5.1864936e-01   5.3240849e-01   5.4246521e-01   5.4921789e-01   5.5314846e-01   5.5479398e-01   5.5471824e-01   5.5348595e-01   5.5164071e-01   5.4968615e-01   5.4806958e-01   5.4716798e-01   5.4727779e-01   5.4861033e-01   5.5129293e-01   5.5537416e-01   5.6083085e-01   5.6757549e-01   5.7546444e-01   5.8430817e-01   5.9388390e-01   6.0394935e-01   6.1425551e-01   6.2455673e-01   6.3461844e-01   6.4422392e-01   6.5318152e-01   6.6133140e-01   6.6854996e-01   6.7475105e-01   6.7988473e-01   6.8393529e-01   6.8691899e-01   6.8888115e-01   6.8989198e-01   6.9004121e-01   6.8943232e-01   6.8817701e-01   6.8639078e-01   6.8418938e-01   6.8168494e-01   6.7898111e-01   6.7616834e-01   6.7332125e-01   6.7049866e-01   6.6774477e-01   6.6508998e-01   6.6255107e-01   6.6013136e-01   6.5782203e-01   6.5560511e-01   6.5345723e-01   6.5135255e-01   6.4926401e-01   6.4716394e-01   6.4502580e-01   6.4282723e-01   6.4055362e-01   6.3820061e-01   6.3577522e-01   6.3329599e-01   6.3079340e-01   6.2831102e-01   6.2590636e-01   6.2364970e-01   6.2162004e-01   6.1989903e-01   6.1856484e-01   6.1768724e-01   6.1732314e-01   6.1751120e-01   6.1826575e-01   6.1957169e-01   6.2138217e-01   6.2361995e-01   6.2618134e-01   6.2894072e-01   6.3175452e-01   6.3446509e-01   6.3690604e-01   6.3890936e-01   6.4031342e-01   6.4096990e-01   6.4074846e-01   6.3953955e-01   6.3725738e-01   6.3384339e-01   6.2926926e-01   6.2353768e-01   6.1668025e-01   6.0875371e-01   5.9983613e-01   5.9002386e-01   5.7942830e-01   5.6817182e-01   5.5638327e-01   5.4419330e-01   5.3173067e-01   5.1911999e-01   5.0647978e-01   4.9391949e-01   4.8153513e-01   4.6940502e-01   4.5758716e-01   4.4611902e-01   4.3501837e-01   4.2428449e-01   4.1389951e-01   4.0383028e-01   3.9403129e-01   3.8444857e-01   3.7502367e-01   3.6569680e-01   3.5640863e-01   3.4710172e-01   3.3772241e-01   3.2822349e-01   3.1856730e-01   3.0872794e-01   2.9869165e-01   2.8845570e-01   2.7802740e-01   2.6742420e-01   2.5667426e-01   2.4581598e-01   2.3489581e-01   2.2396493e-01   2.1307666e-01   2.0228523e-01   1.9164482e-01   1.8120748e-01   1.7101967e-01   1.6111900e-01   1.5153254e-01   1.4227730e-01   1.3336125e-01   1.2478349e-01   1.1653294e-01   1.0858693e-01   1.0091134e-01   9.3463181e-02   8.6194710e-02   7.9057627e-02   7.2006482e-02   6.5001181e-02   5.8009158e-02   5.1007473e-02   4.3984220e-02   3.6938153e-02   2.9876288e-02   2.2810492e-02   1.5754638e-02   8.7233341e-03   1.7317289e-03  -5.2050159e-03  -1.2073230e-02  -1.8862527e-02  -2.5566622e-02  -3.2182461e-02  -3.8708347e-02  -4.5142486e-02  -5.1482563e-02  -5.7725704e-02  -6.3868282e-02  -6.9905697e-02  -7.5832615e-02  -8.1644001e-02  -8.7336842e-02  -9.2911728e-02  -9.8373057e-02  -1.0372723e-01  -1.0897910e-01  -1.1412785e-01  -1.1916428e-01  -1.2406993e-01  -1.2881772e-01  -1.3337312e-01  -1.3769602e-01  -1.4174368e-01  -1.4547458e-01  -1.4885214e-01  -1.5184764e-01  -1.5444183e-01  -1.5662538e-01  -1.5839948e-01  -1.5977802e-01  -1.6079084e-01  -1.6148616e-01  -1.6193076e-01  -1.6220811e-01  -1.6241552e-01  -1.6266141e-01  -1.6306296e-01  -1.6374277e-01  -1.6482286e-01  -1.6641550e-01  -1.6861268e-01  -1.7147739e-01  -1.7504001e-01  -1.7930083e-01  -1.8423641e-01  -1.8980690e-01  -1.9596279e-01  -2.0265113e-01  -2.0982116e-01  -2.1742827e-01  -2.2543512e-01  -2.3380975e-01  -2.4252265e-01  -2.5154426e-01  -2.6084325e-01  -2.7038385e-01  -2.8012194e-01  -2.9000130e-01  -2.9995223e-01  -3.0989289e-01  -3.1973282e-01  -3.2937698e-01  -3.3872890e-01  -3.4769272e-01  -3.5617540e-01  -3.6409001e-01  -3.7135962e-01  -3.7792022e-01  -3.8372158e-01  -3.8872671e-01  -3.9291202e-01  -3.9626963e-01  -3.9881120e-01  -4.0057167e-01  -4.0161259e-01  -4.0202494e-01  -4.0193113e-01  -4.0148525e-01  -4.0087037e-01  -4.0028965e-01  -3.9994627e-01  -4.0000842e-01  -4.0056172e-01  -4.0155583e-01  -4.0275183e-01  -4.0367578e-01  -4.0358858e-01  -4.0148861e-01  -3.9616495e-01  -3.8631388e-01  -3.7071745e-01  -3.4846084e-01  -3.1914062e-01  -2.8300894e-01  -2.4101720e-01  -1.9475649e-01  -1.4631925e-01  -9.8116437e-02  -5.2680493e-02  -1.2475882e-02   2.0268233e-02   4.3694137e-02   5.6415568e-02   5.7580235e-02   4.6896026e-02   2.4623693e-02  -8.4602926e-03  -5.1126245e-02  -1.0177340e-01  -1.5852462e-01  -2.1932689e-01  -2.8205225e-01  -3.4459488e-01  -4.0496001e-01  -4.6134082e-01  -5.1218031e-01  -5.5621634e-01  -5.9251015e-01  -6.2045954e-01  -6.3979801e-01  -6.5058016e-01  -6.5315378e-01  -6.4812084e-01  -6.3629070e-01  -6.1863005e-01  -5.9621270e-01  -5.7017082e-01  -5.4164794e-01  -5.1175448e-01  -4.8152819e-01  -4.5190166e-01  -4.2367800e-01  -3.9751407e-01  -3.7390978e-01  -3.5320384e-01  -3.3557663e-01  -3.2106031e-01  -3.0955484e-01  -3.0084837e-01  -2.9463978e-01  -2.9056139e-01  -2.8820157e-01  -2.8712744e-01  -2.8690738e-01  -2.8713162e-01  -2.8742897e-01  -2.8747839e-01  -2.8701566e-01  -2.8583656e-01  -2.8379778e-01  -2.8081568e-01  -2.7686219e-01  -2.7195769e-01  -2.6616177e-01  -2.5956381e-01  -2.5227502e-01  -2.4442225e-01  -2.3614173e-01  -2.2757208e-01  -2.1884702e-01  -2.1008959e-01  -2.0140812e-01  -1.9289384e-01  -1.8461927e-01  -1.7663750e-01  -1.6898271e-01  -1.6167184e-01  -1.5470787e-01  -1.4808403e-01  -1.4178775e-01  -1.3580329e-01  -1.3011374e-01  -1.2470271e-01  -1.1955587e-01  -1.1466172e-01  -1.1001148e-01  -1.0559769e-01  -1.0141228e-01  -9.7445105e-02  -9.3684039e-02  -9.0115986e-02  -8.6727316e-02  -8.3503016e-02  -8.0425113e-02  -7.7471480e-02  -7.4615683e-02  -7.1827802e-02  -6.9075460e-02  -6.6323990e-02  -6.3535511e-02  -6.0667889e-02  -5.7674387e-02  -5.4503694e-02  -5.1099805e-02  -4.7402125e-02  -4.3346855e-02  -3.8870503e-02  -3.3915354e-02  -2.8435628e-02  -2.2402643e-02  -1.5807922e-02  -8.6643519e-03  -1.0063819e-03   7.1099731e-03   1.5607752e-02   2.4391153e-02   3.3349156e-02   4.2359884e-02   5.1294872e-02   6.0022830e-02   6.8413163e-02   7.6339710e-02   8.3685008e-02   9.0344962e-02   9.6232972e-02   1.0128241e-01   1.0544737e-01   1.0870294e-01   1.1104599e-01   1.1249623e-01   1.1309612e-01   1.1290849e-01   1.1201295e-01   1.1050255e-01   1.0848133e-01   1.0606159e-01   1.0335967e-01   1.0049002e-01   9.7559039e-02   9.4660707e-02   9.1874385e-02   8.9263763e-02   8.6875701e-02   8.4738581e-02   8.2861480e-02   8.1235804e-02   7.9839440e-02   7.8641936e-02   7.7608941e-02   7.6704855e-02   7.5893912e-02   7.5140979e-02   7.4412876e-02   7.3679836e-02   7.2916650e-02   7.2103546e-02   7.1227022e-02   7.0280984e-02   6.9268292e-02   6.8201938e-02   6.7104732e-02   6.6007116e-02   6.4943772e-02   6.3950338e-02   6.3061321e-02   6.2309009e-02   6.1722144e-02   6.1323500e-02   6.1127123e-02   6.1137045e-02   6.1348221e-02   6.1748753e-02   6.2322056e-02   6.3048185e-02   6.3904353e-02   6.4865707e-02   6.5907410e-02   6.7007779e-02   6.8151054e-02   6.9328254e-02   7.0535885e-02   7.1774127e-02   7.3046217e-02   7.4358832e-02   7.5721824e-02   7.7146212e-02   7.8640933e-02   8.0210065e-02   8.1851617e-02   8.3557543e-02   8.5313750e-02   8.7099403e-02   8.8886623e-02   9.0642281e-02   9.2331735e-02   9.3922700e-02   9.5387931e-02   9.6706455e-02   9.7863910e-02   9.8853014e-02   9.9674579e-02   1.0033834e-01   1.0086297e-01   1.0127517e-01   1.0160843e-01   1.0190205e-01   1.0220128e-01   1.0255768e-01   1.0302769e-01   1.0366933e-01   1.0453809e-01   1.0568365e-01   1.0714759e-01   1.0896166e-01   1.1114564e-01   1.1370520e-01   1.1663053e-01   1.1989668e-01   1.2346546e-01   1.2728773e-01   1.3130461e-01   1.3544726e-01   1.3963618e-01   1.4378159e-01   1.4778589e-01   1.5154762e-01   1.5496564e-01   1.5794306e-01   1.6039114e-01   1.6223325e-01   1.6340894e-01   1.6387818e-01   1.6362558e-01   1.6266272e-01   1.6102679e-01   1.5877437e-01   1.5597194e-01   1.5268572e-01   1.4897255e-01   1.4487254e-01   1.4040502e-01   1.3556879e-01   1.3034723e-01   1.2471678e-01   1.1865629e-01   1.1215468e-01   1.0521635e-01   9.7864839e-02   9.0145329e-02   8.2126010e-02   7.3897268e-02   6.5568236e-02   5.7261440e-02   4.9107540e-02   4.1241434e-02   3.3798676e-02   2.6910267e-02   2.0695466e-02   1.5254217e-02   1.0661477e-02   6.9647558e-03   4.1840699e-03   2.3120738e-03   1.3125885e-03   1.1176431e-03   1.6247636e-03   2.6965374e-03   4.1637445e-03   5.8317707e-03   7.4880220e-03   8.9080008e-03   9.8613919e-03   1.0123562e-02   9.4971679e-03   7.8438321e-03   5.1216780e-03   1.4234524e-03  -2.9881595e-03  -7.6488743e-03  -1.1866866e-02  -1.4711263e-02  -1.5030630e-02  -1.1517282e-02  -2.8265221e-03   1.2252047e-02   3.4592094e-02   6.4537961e-02   1.0177091e-01   1.4526933e-01   1.9336896e-01   2.4390227e-01   2.9438340e-01   3.4220677e-01   3.8483639e-01   4.1997213e-01   4.4568616e-01   4.6052539e-01   4.6357689e-01   4.5449534e-01   4.3349485e-01   4.0131011e-01   3.5913381e-01   3.0853668e-01   2.5137560e-01   1.8969451e-01   1.2562255e-01   6.1275459e-02  -1.3340590e-03  -6.0372828e-02  -1.1424933e-01  -1.6166072e-01  -2.0162391e-01  -2.3349026e-01  -2.5694450e-01  -2.7198904e-01  -2.7891597e-01  -2.7827054e-01  -2.7080915e-01  -2.5745375e-01  -2.3924413e-01  -2.1728938e-01  -1.9272046e-01  -1.6664621e-01  -1.4011461e-01  -1.1408022e-01  -8.9377688e-02  -6.6701299e-02  -4.6590991e-02  -2.9425609e-02  -1.5424348e-02  -4.6559118e-03   2.9467903e-03   7.5687608e-03   9.4928161e-03   9.0772250e-03   6.7316856e-03   2.8936840e-03  -1.9925330e-03  -7.4936468e-03  -1.3202474e-02  -1.8751648e-02  -2.3825437e-02  -2.8168211e-02  -3.1588256e-02  -3.3957120e-02  -3.5206444e-02  -3.5324152e-02  -3.4349945e-02  -3.2368914e-02  -2.9503028e-02  -2.5901484e-02  -2.1731240e-02  -1.7168336e-02  -1.2389673e-02  -7.5649988e-03  -2.8497512e-03   1.6204413e-03   5.7332220e-03   9.4007954e-03   1.2559473e-02   1.5168851e-02   1.7211673e-02   1.8693582e-02   1.9641104e-02   2.0097464e-02   2.0117418e-02   1.9762823e-02   1.9099988e-02   1.8198082e-02   1.7126982e-02   1.5954169e-02   1.4741735e-02   1.3544672e-02   1.2410612e-02   1.1380215e-02   1.0486891e-02   9.7551092e-03   9.1981402e-03   8.8170208e-03   8.6017900e-03   8.5346883e-03   8.5939885e-03   8.7570800e-03   9.0028248e-03   9.3144510e-03   9.6834138e-03   1.0112912e-02   1.0619202e-02   1.1229764e-02   1.1979136e-02   1.2904512e-02   1.4042632e-02   1.5427335e-02   1.7086449e-02   1.9038205e-02   2.1288425e-02   2.3829079e-02   2.6638049e-02   2.9679650e-02   3.2905012e-02   3.6251889e-02   3.9644650e-02   4.2995721e-02   4.6209134e-02   4.9185566e-02   5.1827304e-02   5.4041977e-02   5.5745442e-02   5.6865227e-02   5.7345106e-02   5.7149688e-02   5.6267067e-02   5.4708245e-02   5.2503917e-02   4.9700640e-02   4.6357841e-02   4.2545682e-02   3.8342943e-02   3.3834038e-02   2.9105267e-02   2.4241391e-02   1.9323142e-02   1.4425125e-02   9.6134837e-03   4.9435162e-03   4.5811833e-04  -3.8121248e-03  -7.8471930e-03  -1.1635537e-02  -1.5173430e-02  -1.8466211e-02  -2.1529789e-02  -2.4390190e-02  -2.7080477e-02  -2.9636275e-02  -3.2091670e-02  -3.4476702e-02  -3.6816370e-02  -3.9129902e-02  -4.1429405e-02  -4.3718593e-02  -4.5992852e-02  -4.8241233e-02  -5.0449665e-02  -5.2603833e-02  -5.4690480e-02  -5.6697465e-02  -5.8613815e-02  -6.0430555e-02  -6.2141824e-02  -6.3745152e-02  -6.5240444e-02  -6.6628113e-02  -6.7907210e-02  -6.9074198e-02  -7.0122793e-02  -7.1044648e-02  -7.1830062e-02  -7.2468471e-02  -7.2949600e-02  -7.3265835e-02  -7.3415367e-02  -7.3405025e-02  -7.3251283e-02  -7.2978617e-02  -7.2616238e-02  -7.2194868e-02  -7.1744215e-02  -7.1290760e-02  -7.0855565e-02  -7.0452579e-02  -7.0088298e-02  -6.9763431e-02  -6.9476067e-02  -6.9224360e-02  -6.9006983e-02  -6.8821573e-02  -6.8662819e-02  -6.8521580e-02  -6.8385010e-02  -6.8236560e-02  -6.8055340e-02  -6.7815737e-02  -6.7488421e-02  -6.7042732e-02  -6.6449433e-02  -6.5682481e-02  -6.4718787e-02  -6.3536290e-02  -6.2112441e-02  -6.0424956e-02  -5.8454347e-02  -5.6186183e-02  -5.3612255e-02  -5.0731366e-02  -4.7550416e-02  -4.4085476e-02  -4.0362095e-02  -3.6414300e-02  -3.2282105e-02  -2.8008396e-02  -2.3636895e-02  -1.9212179e-02  -1.4781218e-02  -1.0394866e-02  -6.1078969e-03  -1.9778384e-03   1.9358618e-03   5.5719565e-03   8.8680120e-03   1.1762166e-02   1.4195361e-02   1.6113520e-02   1.7470137e-02   1.8230085e-02   1.8374146e-02   1.7902203e-02   1.6833004e-02   1.5200149e-02   1.3045659e-02   1.0413122e-02   7.3420989e-03   3.8647701e-03   5.4069264e-06  -4.2172629e-03  -8.7860910e-03  -1.3681920e-02  -1.8880990e-02  -2.4352309e-02  -3.0054350e-02  -3.5932264e-02  -4.1917485e-02  -4.7930423e-02  -5.3885245e-02  -5.9695004e-02  -6.5275663e-02  -7.0548605e-02  -7.5442414e-02  -7.9894765e-02  -8.3854106e-02  -8.7280330e-02  -9.0144261e-02  -9.2426550e-02  -9.4116727e-02  -9.5213024e-02  -9.5722719e-02  -9.5661827e-02  -9.5053396e-02  -9.3925281e-02  -9.2309014e-02  -9.0240884e-02  -8.7765031e-02  -8.4937692e-02  -8.1831909e-02  -7.8542032e-02  -7.5187461e-02  -7.1915007e-02  -6.8897639e-02  -6.6324531e-02  -6.4377055e-02  -6.3190162e-02  -6.2804199e-02  -6.3113251e-02  -6.3814570e-02  -6.4366103e-02  -6.3966619e-02  -6.1577955e-02  -5.6005860e-02  -4.6043832e-02  -3.0663844e-02  -9.2154695e-03   1.8415121e-02   5.1724197e-02   8.9600982e-02   1.3041854e-01   1.7217947e-01   2.1268816e-01   2.4972563e-01   2.8120997e-01   3.0533119e-01   3.2065426e-01   3.2618838e-01   3.2142398e-01   3.0634084e-01   2.8138988e-01   2.4745066e-01   2.0576838e-01   1.5787616e-01   1.0550939e-01   5.0518042e-02  -5.2196248e-03  -5.9879211e-02  -1.1176460e-01  -1.5937124e-01  -2.0143579e-01  -2.3697078e-01  -2.6528479e-01  -2.8598895e-01  -2.9899169e-01  -3.0448232e-01  -3.0290349e-01  -2.9491329e-01  -2.8134022e-01  -2.6313555e-01  -2.4132617e-01  -2.1697001e-01  -1.9111395e-01  -1.6475462e-01  -1.3880389e-01  -1.1406121e-01  -9.1193694e-02  -7.0724111e-02  -5.3025757e-02  -3.8323719e-02  -2.6701573e-02  -1.8112822e-02  -1.2396646e-02  -9.2970104e-03  -8.4832747e-03  -9.5704715e-03  -1.2138598e-02  -1.5751291e-02  -1.9974129e-02  -2.4391981e-02  -2.8624388e-02  -3.2338402e-02  -3.5258825e-02  -3.7175914e-02  -3.7950371e-02  -3.7514732e-02  -3.5869664e-02  -3.3075024e-02  -2.9237688e-02  -2.4499174e-02  -1.9024944e-02  -1.2995173e-02  -6.5958783e-03  -1.0159401e-05   6.5898147e-03   1.3049008e-02   1.9233020e-02   2.5029214e-02   3.0347235e-02   3.5120304e-02   3.9306788e-02   4.2890322e-02   4.5877364e-02   4.8292491e-02   5.0173004e-02   5.1564502e-02   5.2517751e-02   5.3085809e-02   5.3320652e-02   5.3270111e-02   5.2976523e-02   5.2477170e-02   5.1804964e-02   5.0988399e-02   5.0051632e-02   4.9016114e-02   4.7903925e-02   4.6741815e-02   4.5564288e-02   4.4414141e-02   4.3339964e-02   4.2391923e-02   4.1618139e-02   4.1063102e-02   4.0767824e-02   4.0770078e-02   4.1103470e-02   4.1795904e-02   4.2869238e-02   4.4340845e-02   4.6225778e-02   4.8537692e-02   5.1287810e-02   5.4482846e-02   5.8123529e-02   6.2204532e-02   6.6715233e-02   7.1639992e-02   7.6956766e-02   8.2634040e-02   8.8627488e-02   9.4877865e-02   1.0131039e-01   1.0783518e-01   1.1434825e-01   1.2073369e-01   1.2686742e-01   1.3262290e-01   1.3787776e-01   1.4252002e-01   1.4645238e-01   1.4959465e-01   1.5188545e-01   1.5328413e-01   1.5377306e-01   1.5335904e-01   1.5207313e-01   1.4996941e-01   1.4712340e-01   1.4362974e-01   1.3959803e-01   1.3514629e-01   1.3039309e-01   1.2544979e-01   1.2041537e-01   1.1537410e-01   1.1039495e-01   1.0553054e-01   1.0081561e-01   9.6266238e-02   9.1881248e-02   8.7645976e-02   8.3536552e-02   7.9523308e-02   7.5573342e-02   7.1653143e-02   6.7731845e-02   6.3784897e-02   5.9797294e-02   5.5765241e-02   5.1695509e-02   4.7602854e-02   4.3507025e-02   3.9430846e-02   3.5399728e-02   3.1441899e-02   2.7588242e-02   2.3871060e-02   2.0321977e-02   1.6969845e-02   1.3839096e-02   1.0948375e-02   8.3092900e-03   5.9256512e-03   3.7940180e-03   1.9057089e-03   2.4909048e-04  -1.1895321e-03  -2.4271318e-03  -3.4862473e-03  -4.3962554e-03  -5.1922603e-03  -5.9118021e-03  -6.5907686e-03  -7.2604310e-03  -7.9463589e-03  -8.6677460e-03  -9.4358843e-03  -1.0252932e-02  -1.1112632e-02  -1.2002887e-02  -1.2908877e-02  -1.3815646e-02  -1.4709647e-02  -1.5579480e-02  -1.6416462e-02  -1.7215463e-02  -1.7975612e-02  -1.8700001e-02  -1.9394000e-02  -2.0063082e-02  -2.0711695e-02  -2.1344019e-02  -2.1965516e-02  -2.2583306e-02  -2.3204426e-02  -2.3832617e-02  -2.4464962e-02  -2.5089416e-02  -2.5683312e-02  -2.6212298e-02  -2.6629821e-02  -2.6878273e-02  -2.6892712e-02  -2.6606785e-02  -2.5959165e-02  -2.4898671e-02  -2.3387456e-02  -2.1402802e-02  -1.8938471e-02  -1.6006241e-02  -1.2637214e-02  -8.8819640e-03  -4.8094274e-03  -5.0518284e-04   3.9303258e-03   8.3835981e-03   1.2730836e-02   1.6842933e-02   2.0592530e-02   2.3860984e-02   2.6543264e-02   2.8550987e-02   2.9815580e-02   3.0293088e-02   2.9969987e-02   2.8867192e-02   2.7039032e-02   2.4565930e-02   2.1542563e-02   1.8065318e-02   1.4222175e-02   1.0085772e-02   5.7087795e-03   1.1211373e-03  -3.6700921e-03  -8.6775226e-03  -1.3927421e-02  -1.9452074e-02  -2.5281501e-02  -3.1435459e-02  -3.7916778e-02  -4.4706482e-02  -5.1760697e-02  -5.9009874e-02  -6.6361093e-02  -7.3703444e-02  -8.0915237e-02  -8.7871207e-02  -9.4448341e-02  -1.0052982e-01  -1.0600813e-01  -1.1078916e-01  -1.1479717e-01  -1.1797818e-01  -1.2030026e-01  -1.2175211e-01  -1.2234191e-01  -1.2209729e-01  -1.2106665e-01  -1.1932094e-01  -1.1695487e-01  -1.1408771e-01  -1.1086386e-01  -1.0745263e-01  -1.0404652e-01  -1.0085648e-01  -9.8100965e-02  -9.5985125e-02  -9.4669246e-02  -9.4229197e-02  -9.4612743e-02  -9.5594147e-02  -9.6730305e-02  -9.7327850e-02  -9.6438134e-02  -9.2899074e-02  -8.5437003e-02  -7.2827851e-02  -5.4096702e-02  -2.8715143e-02   3.2506891e-03   4.1075860e-02   8.3406238e-02   1.2836883e-01   1.7373593e-01   2.1711274e-01   2.5612309e-01   2.8857626e-01   3.1260563e-01   3.2677430e-01   3.3014535e-01   3.2231592e-01   3.0341632e-01   2.7407774e-01   2.3537441e-01   1.8874770e-01   1.3591937e-01   7.8798510e-02   1.9386096e-02  -4.0318680e-02  -9.8404966e-02  -1.5312513e-01  -2.0295499e-01  -2.4663877e-01  -2.8321976e-01  -3.1205726e-01  -3.3282935e-01  -3.4552141e-01  -3.5040108e-01  -3.4798262e-01  -3.3898494e-01  -3.2428709e-01  -3.0488260e-01  -2.8183292e-01  -2.5622107e-01  -2.2910799e-01  -2.0149455e-01  -1.7429067e-01  -1.4829181e-01  -1.2416190e-01  -1.0242182e-01  -8.3443491e-02  -6.7450858e-02  -5.4528220e-02  -4.4634465e-02  -3.7620119e-02  -3.3245169e-02  -3.1197451e-02  -3.1111987e-02  -3.2591197e-02  -3.5225068e-02  -3.8609327e-02  -4.2359683e-02  -4.6121903e-02  -4.9579370e-02  -5.2459991e-02  -5.4542691e-02  -5.5662004e-02  -5.5709352e-02  -5.4631467e-02  -5.2427704e-02  -4.9146908e-02  -4.4882772e-02  -3.9766700e-02  -3.3958496e-02  -2.7636140e-02  -2.0986059e-02  -1.4194559e-02  -7.4400629e-03  -8.8552826e-04   5.3287261e-03   1.1090640e-02   1.6319590e-02   2.0966969e-02   2.5014601e-02   2.8471940e-02   3.1372745e-02   3.3770896e-02   3.5734762e-02   3.7340259e-02   3.8663676e-02   3.9775980e-02   4.0739756e-02   4.1608115e-02   4.2423793e-02   4.3217519e-02   4.4006370e-02   4.4793589e-02   4.5570721e-02   4.6321382e-02   4.7024979e-02   4.7659218e-02   4.8201870e-02   4.8632876e-02   4.8937035e-02   4.9106344e-02   4.9141066e-02   4.9049536e-02   4.8847573e-02   4.8558365e-02   4.8213114e-02   4.7852091e-02   4.7525484e-02   4.7293376e-02   4.7225031e-02   4.7398264e-02   4.7898836e-02   4.8818421e-02   5.0249784e-02   5.2279402e-02   5.4979479e-02   5.8401716e-02   6.2573796e-02   6.7497628e-02   7.3147855e-02   7.9469992e-02   8.6378976e-02   9.3759948e-02   1.0147221e-01   1.0935514e-01   1.1723444e-01   1.2492825e-01   1.3225393e-01   1.3903551e-01   1.4511169e-01   1.5034328e-01   1.5461864e-01   1.5785628e-01   1.6000535e-01   1.6104570e-01   1.6098798e-01   1.5987322e-01   1.5777053e-01   1.5477242e-01   1.5098841e-01   1.4653855e-01   1.4154808e-01   1.3614295e-01   1.3044484e-01   1.2456588e-01   1.1860417e-01   1.1264139e-01   1.0674285e-01   1.0095918e-01   9.5328214e-02   8.9875931e-02   8.4616845e-02   7.9554760e-02   7.4684729e-02   6.9995646e-02   6.5472277e-02   6.1096111e-02   5.6845389e-02   5.2695497e-02   4.8620770e-02   4.4597404e-02   4.0606134e-02   3.6633725e-02   3.2673354e-02   2.8724692e-02   2.4794113e-02   2.0894552e-02   1.7044344e-02   1.3265079e-02   9.5794211e-03   6.0101250e-03   2.5804094e-03  -6.8548950e-04  -3.7630635e-03  -6.6300980e-03  -9.2699457e-03  -1.1673614e-02  -1.3839910e-02  -1.5774466e-02  -1.7488749e-02  -1.8999436e-02  -2.0327839e-02  -2.1498772e-02  -2.2538622e-02  -2.3473049e-02  -2.4325030e-02  -2.5113782e-02  -2.5854535e-02  -2.6558295e-02  -2.7231023e-02  -2.7872858e-02  -2.8478616e-02  -2.9039878e-02  -2.9547816e-02  -2.9995331e-02  -3.0377646e-02  -3.0692264e-02  -3.0939587e-02  -3.1124061e-02  -3.1254881e-02  -3.1345649e-02  -3.1412853e-02  -3.1473547e-02  -3.1543226e-02  -3.1634733e-02  -3.1757949e-02  -3.1919284e-02  -3.2120595e-02  -3.2358266e-02  -3.2623517e-02  -3.2904221e-02  -3.3187178e-02  -3.3459363e-02  -3.3707671e-02  -3.3917809e-02  -3.4073278e-02  -3.4155348e-02  -3.4144107e-02  -3.4019215e-02  -3.3758759e-02  -3.3336894e-02  -3.2722686e-02  -3.1881797e-02  -3.0780221e-02  -2.9387917e-02  -2.7680864e-02  -2.5641904e-02  -2.3261426e-02  -2.0538413e-02  -1.7481637e-02  -1.4110418e-02  -1.0454607e-02  -6.5543745e-03  -2.4608280e-03   1.7622149e-03   6.0362608e-03   1.0267928e-02   1.4351903e-02   1.8176346e-02   2.1628503e-02   2.4599332e-02   2.6988014e-02   2.8707905e-02   2.9694020e-02   2.9909476e-02   2.9347199e-02   2.8025455e-02   2.5979411e-02   2.3252284e-02   1.9888361e-02   1.5928533e-02   1.1408147e-02   6.3571275e-03   8.0253044e-04  -5.2270812e-03  -1.1697009e-02  -1.8562785e-02  -2.5767998e-02  -3.3243598e-02  -4.0908332e-02  -4.8669545e-02  -5.6423795e-02  -6.4057642e-02  -7.1449872e-02  -7.8476171e-02  -8.5015652e-02  -9.0957521e-02  -9.6206294e-02  -1.0068514e-01  -1.0433802e-01  -1.0713143e-01  -1.0905540e-01  -1.1012294e-01  -1.1036766e-01  -1.0984068e-01  -1.0860751e-01  -1.0674560e-01  -1.0434272e-01  -1.0149614e-01  -9.8312626e-02  -9.4910165e-02  -9.1421474e-02  -8.7997341e-02  -8.4807233e-02  -8.2035581e-02  -7.9872372e-02  -7.8495147e-02  -7.8039568e-02  -7.8559240e-02  -7.9979405e-02  -8.2050093e-02  -8.4303892e-02  -8.6025626e-02  -8.6246192e-02  -8.3776241e-02  -7.7292179e-02  -6.5477564e-02  -4.7209769e-02  -2.1764557e-02   1.1005011e-02   5.0560442e-02   9.5666616e-02   1.4447569e-01   1.9468241e-01   2.4371802e-01   2.8895279e-01   3.2788523e-01   3.5830480e-01   3.7842125e-01   3.8695736e-01   3.8320406e-01   3.6703825e-01   3.3890526e-01   2.9977049e-01   2.5104663e-01   1.9450449e-01   1.3217354e-01   6.6237306e-02  -1.0720100e-03  -6.7574049e-02  -1.3123033e-01  -1.9021993e-01  -2.4299911e-01  -2.8834413e-01  -3.2537756e-01  -3.5357823e-01  -3.7277485e-01  -3.8312399e-01  -3.8507540e-01  -3.7932879e-01  -3.6678555e-01  -3.4849749e-01  -3.2561422e-01  -2.9933089e-01  -2.7083835e-01  -2.4127828e-01  -2.1170532e-01  -1.8305662e-01  -1.5612861e-01  -1.3156020e-01  -1.0982321e-01  -9.1220744e-02  -7.5893801e-02  -6.3834793e-02  -5.4905553e-02  -4.8857565e-02  -4.5353712e-02  -4.3991627e-02  -4.4328169e-02  -4.5903616e-02  -4.8263969e-02  -5.0980258e-02  -5.3664041e-02  -5.5978911e-02  -5.7648869e-02  -5.8464150e-02  -5.8283778e-02  -5.7033936e-02  -5.4702465e-02  -5.1331152e-02  -4.7007598e-02  -4.1857133e-02  -3.6033987e-02  -2.9711123e-02  -2.3069432e-02  -1.6287879e-02  -9.5356949e-03  -2.9664354e-03   3.2869409e-03   9.1163447e-03   1.4441892e-02   1.9213632e-02   2.3410936e-02   2.7039675e-02   3.0128624e-02   3.2726057e-02   3.4895835e-02   3.6711928e-02   3.8251436e-02   3.9587525e-02   4.0784458e-02   4.1895890e-02   4.2965502e-02   4.4028021e-02   4.5109311e-02   4.6225664e-02   4.7383326e-02   4.8579070e-02   4.9802086e-02   5.1036735e-02   5.2265060e-02   5.3468592e-02   5.4630257e-02   5.5736799e-02   5.6780644e-02   5.7759923e-02   5.8676467e-02   5.9533303e-02   6.0333914e-02   6.1083741e-02   6.1791958e-02   6.2471407e-02   6.3136609e-02   6.3801613e-02   6.4479346e-02   6.5182756e-02   6.5926842e-02   6.6730492e-02   6.7617482e-02   6.8616565e-02   6.9760861e-02   7.1086847e-02   7.2633090e-02   7.4438395e-02   7.6538707e-02   7.8962946e-02   8.1729125e-02   8.4841562e-02   8.8288718e-02   9.2041272e-02   9.6050779e-02   1.0024936e-01   1.0455108e-01   1.0885554e-01   1.1305322e-01   1.1703101e-01   1.2067706e-01   1.2388474e-01   1.2655671e-01   1.2860913e-01   1.2997572e-01   1.3061024e-01   1.3048717e-01   1.2960086e-01   1.2796459e-01   1.2561025e-01   1.2258807e-01   1.1896545e-01   1.1482406e-01   1.1025601e-01   1.0536003e-01   1.0023842e-01   9.4994322e-02   8.9728249e-02   8.4533232e-02   7.9489373e-02   7.4660106e-02   7.0092104e-02   6.5818258e-02   6.1861204e-02   5.8235278e-02   5.4946687e-02   5.1993317e-02   4.9365626e-02   4.7048591e-02   4.5023550e-02   4.3268936e-02   4.1760230e-02   4.0470640e-02   3.9373610e-02   3.8446093e-02   3.7670347e-02   3.7033125e-02   3.6523393e-02   3.6130872e-02   3.5846283e-02   3.5661451e-02   3.5567243e-02   3.5550475e-02   3.5593086e-02   3.5674437e-02   3.5774203e-02   3.5873124e-02   3.5951303e-02   3.5985465e-02   3.5946715e-02   3.5799410e-02   3.5500703e-02   3.4999913e-02   3.4237390e-02   3.3143584e-02   3.1640023e-02   2.9643566e-02   2.7073276e-02   2.3857581e-02   1.9940008e-02   1.5283252e-02   9.8718716e-03   3.7142549e-03  -3.1554058e-03  -1.0675303e-02  -1.8755993e-02  -2.7283493e-02  -3.6124702e-02  -4.5132948e-02  -5.4152471e-02  -6.3022309e-02  -7.1580641e-02  -7.9670118e-02  -8.7143460e-02  -9.3867812e-02  -9.9727470e-02  -1.0462607e-01  -1.0848905e-01  -1.1126623e-01  -1.1293399e-01  -1.1349617e-01  -1.1298318e-01  -1.1144992e-01  -1.0897358e-01  -1.0565205e-01  -1.0160237e-01  -9.6958790e-02  -9.1870352e-02  -8.6499412e-02  -8.1022107e-02  -7.5630432e-02  -7.0533550e-02  -6.5955550e-02  -6.2128526e-02  -5.9280464e-02  -5.7615177e-02  -5.7280929e-02  -5.8328229e-02  -6.0662451e-02  -6.3998672e-02  -6.7824456e-02  -7.1376630e-02  -7.3642202e-02  -7.3396152e-02  -6.9286350e-02  -5.9969899e-02  -4.4294581e-02  -2.1500328e-02   8.6033497e-03   4.5530497e-02   8.8109279e-02   1.3456692e-01   1.8268286e-01   2.2997638e-01   2.7389983e-01   3.1201913e-01   3.4217082e-01   3.6258919e-01   3.7199823e-01   3.6966602e-01   3.5542176e-01   3.2963947e-01   2.9319422e-01   2.4739670e-01   1.9391083e-01   1.3465902e-01   7.1720758e-02   7.2305694e-03  -5.6718729e-02  -1.1816236e-01  -1.7533608e-01  -2.2673359e-01  -2.7114857e-01  -3.0770096e-01  -3.3584704e-01  -3.5537419e-01  -3.6638256e-01  -3.6925661e-01  -3.6462925e-01  -3.5333979e-01  -3.3638642e-01  -3.1487431e-01  -2.8996244e-01  -2.6281238e-01  -2.3454254e-01  -2.0618972e-01  -1.7867826e-01  -1.5279594e-01  -1.2917677e-01  -1.0829199e-01  -9.0450233e-02  -7.5805132e-02  -6.4368299e-02  -5.6025744e-02  -5.0556994e-02  -4.7656492e-02  -4.6956722e-02  -4.8051343e-02  -5.0515794e-02  -5.3924109e-02  -5.7862872e-02  -6.1944039e-02  -6.5817314e-02  -6.9181038e-02  -7.1789818e-02  -7.3457962e-02  -7.4059249e-02  -7.3524567e-02  -7.1838861e-02  -6.9037201e-02  -6.5198779e-02  -6.0438702e-02  -5.4898949e-02  -4.8740070e-02  -4.2134307e-02  -3.5259682e-02  -2.8293848e-02  -2.1407014e-02  -1.4754817e-02  -8.4728128e-03  -2.6731800e-03   2.5569591e-03   7.1565548e-03   1.1091547e-02   1.4355180e-02   1.6966487e-02   1.8966370e-02   2.0412176e-02   2.1372631e-02   2.1924453e-02   2.2150372e-02   2.2137127e-02   2.1972072e-02   2.1738448e-02   2.1510778e-02   2.1351754e-02   2.1310689e-02   2.1422599e-02   2.1707050e-02   2.2167022e-02   2.2789309e-02   2.3547600e-02   2.4407419e-02   2.5330954e-02   2.6280615e-02   2.7221606e-02   2.8124587e-02   2.8968899e-02   2.9745365e-02   3.0457030e-02   3.1117156e-02   3.1745718e-02   3.2366752e-02   3.3007587e-02   3.3698685e-02   3.4472294e-02   3.5359803e-02   3.6389432e-02   3.7585642e-02   3.8969838e-02   4.0561062e-02   4.2375554e-02   4.4424737e-02   4.6712353e-02   4.9232661e-02   5.1971000e-02   5.4906106e-02   5.8012514e-02   6.1261520e-02   6.4620396e-02   6.8051050e-02   7.1509576e-02   7.4946858e-02   7.8309129e-02   8.1537613e-02   8.4567714e-02   8.7329270e-02   8.9749266e-02   9.1757024e-02   9.3290362e-02   9.4301031e-02   9.4758425e-02   9.4651490e-02   9.3989142e-02   9.2799247e-02   9.1125885e-02   8.9025017e-02   8.6559327e-02   8.3793575e-02   8.0791613e-02   7.7614952e-02   7.4321478e-02   7.0963434e-02   6.7585269e-02   6.4222544e-02   6.0902558e-02   5.7646154e-02   5.4469219e-02   5.1382621e-02   4.8390990e-02   4.5491941e-02   4.2676381e-02   3.9928970e-02   3.7228002e-02   3.4545303e-02   3.1847705e-02   2.9101122e-02   2.6276253e-02   2.3353533e-02   2.0325446e-02   1.7195965e-02   1.3978354e-02   1.0693048e-02   7.3665561e-03   4.0310584e-03   7.2356723e-04  -2.5158207e-03  -5.6459245e-03  -8.6260432e-03  -1.1416849e-02  -1.3980825e-02  -1.6283255e-02  -1.8294614e-02  -1.9993549e-02  -2.1368645e-02  -2.2418307e-02  -2.3149602e-02  -2.3576943e-02  -2.3721188e-02  -2.3609253e-02  -2.3273671e-02  -2.2751431e-02  -2.2082325e-02  -2.1307567e-02  -2.0469128e-02  -1.9609291e-02  -1.8769443e-02  -1.7987819e-02  -1.7297092e-02  -1.6723060e-02  -1.6285341e-02  -1.5999747e-02  -1.5880129e-02  -1.5937680e-02  -1.6178584e-02  -1.6602363e-02  -1.7202107e-02  -1.7965862e-02  -1.8877542e-02  -1.9916108e-02  -2.1053182e-02  -2.2250785e-02  -2.3461332e-02  -2.4630594e-02  -2.5702220e-02  -2.6621763e-02  -2.7339431e-02  -2.7812344e-02  -2.8007470e-02  -2.7905158e-02  -2.7501719e-02  -2.6809919e-02  -2.5857785e-02  -2.4686836e-02  -2.3350505e-02  -2.1912454e-02  -2.0443593e-02  -1.9017220e-02  -1.7703422e-02  -1.6564294e-02  -1.5650470e-02  -1.4998565e-02  -1.4629028e-02  -1.4544462e-02  -1.4729226e-02  -1.5151179e-02  -1.5765395e-02  -1.6518625e-02  -1.7352971e-02  -1.8208072e-02  -1.9022431e-02  -1.9735046e-02  -2.0287988e-02  -2.0629689e-02  -2.0718397e-02  -2.0525324e-02  -2.0037093e-02  -1.9257089e-02  -1.8205726e-02  -1.6919739e-02  -1.5450009e-02  -1.3857753e-02  -1.2209958e-02  -1.0575391e-02  -9.0218626e-03  -7.6139758e-03  -6.4099724e-03  -5.4575197e-03  -4.7899520e-03  -4.4246335e-03  -4.3637635e-03  -4.5966908e-03  -5.1023544e-03  -5.8509086e-03  -6.8045756e-03  -7.9184710e-03  -9.1420539e-03  -1.0421027e-02  -1.1698945e-02  -1.2918438e-02  -1.4022841e-02  -1.4958973e-02  -1.5680896e-02  -1.6153874e-02  -1.6357380e-02  -1.6286234e-02  -1.5949604e-02  -1.5368735e-02  -1.4574563e-02  -1.3605667e-02  -1.2506289e-02  -1.1323810e-02  -1.0105186e-02  -8.8926287e-03  -7.7195681e-03  -6.6075872e-03  -5.5642691e-03  -4.5821366e-03  -3.6393858e-03  -2.7026453e-03  -1.7311437e-03  -6.8118810e-04   4.9027007e-04   1.8235942e-03   3.3554790e-03   5.1180285e-03   7.1369924e-03   9.4288676e-03   1.1997646e-02   1.4832443e-02   1.7906309e-02   2.1175361e-02   2.4577694e-02   2.8033111e-02   3.1445621e-02   3.4709382e-02   3.7716284e-02   4.0362132e-02   4.2549620e-02   4.4189301e-02   4.5201542e-02   4.5521358e-02   4.5105324e-02   4.3937849e-02   4.2033998e-02   3.9437579e-02   3.6215295e-02   3.2449054e-02   2.8228258e-02   2.3642525e-02   1.8774529e-02   1.3693752e-02   8.4531904e-03   3.0899136e-03  -2.3715432e-03  -7.9145602e-03  -1.3525654e-02  -1.9190123e-02  -2.4888312e-02  -3.0592573e-02  -3.6265637e-02  -4.1861523e-02  -4.7329288e-02  -5.2618051e-02  -5.7680519e-02  -6.2473413e-02  -6.6955580e-02  -7.1086180e-02  -7.4825132e-02  -7.8135664e-02  -8.0986753e-02  -8.3353923e-02  -8.5218985e-02  -8.6570323e-02  -8.7404838e-02  -8.7731521e-02  -8.7575601e-02  -8.6982305e-02  -8.6019549e-02  -8.4779027e-02  -8.3376200e-02  -8.1949153e-02  -8.0652645e-02  -7.9641546e-02  -7.9041216e-02  -7.8908597e-02  -7.9190371e-02  -7.9682042e-02  -7.9989653e-02  -7.9499428e-02  -7.7367222e-02  -7.2542533e-02  -6.3837942e-02  -5.0047005e-02  -3.0103489e-02  -3.2618972e-03   3.0733308e-02   7.1525310e-02   1.1809456e-01   1.6878833e-01   2.2142333e-01   2.7344510e-01   3.2212313e-01   3.6475727e-01   3.9887235e-01   4.2238365e-01   4.3372354e-01   4.3192519e-01   4.1666242e-01   3.8824712e-01   3.4758822e-01   2.9611900e-01   2.3570088e-01   1.6851212e-01   9.6929019e-02   2.3406205e-02  -4.9637859e-02  -1.1992476e-01  -1.8540426e-01  -2.4432312e-01  -2.9527391e-01  -3.3722525e-01  -3.6953471e-01  -3.9194509e-01  -4.0456411e-01  -4.0782971e-01  -4.0246451e-01  -3.8942326e-01  -3.6983672e-01  -3.4495474e-01  -3.1609015e-01  -2.8456449e-01  -2.5165770e-01  -2.1856429e-01  -1.8635766e-01  -1.5596251e-01  -1.2813478e-01  -1.0344911e-01  -8.2294303e-02  -6.4877139e-02  -5.1233959e-02  -4.1248160e-02  -3.4671634e-02  -3.1148854e-02  -3.0242940e-02  -3.1462934e-02  -3.4290970e-02  -3.8207520e-02  -4.2712934e-02  -4.7344557e-02  -5.1689869e-02  -5.5396828e-02  -5.8182436e-02  -5.9839213e-02  -6.0237901e-02  -5.9325009e-02  -5.7115664e-02  -5.3683705e-02  -4.9151035e-02  -4.3676799e-02  -3.7446025e-02  -3.0657542e-02  -2.3511937e-02  -1.6201110e-02  -8.9006973e-03  -1.7651119e-03   5.0761225e-03   1.1521369e-02   1.7498408e-02   2.2963486e-02   2.7897925e-02   3.2303335e-02   3.6197049e-02   3.9609169e-02   4.2580926e-02   4.5162821e-02   4.7411336e-02   4.9384478e-02   5.1137717e-02   5.2721366e-02   5.4178587e-02   5.5542649e-02   5.6833290e-02   5.8053578e-02   5.9189299e-02   6.0211669e-02   6.1082149e-02   6.1757418e-02   6.2193225e-02   6.2346825e-02   6.2178992e-02   6.1656717e-02   6.0756154e-02   5.9464646e-02   5.7781647e-02   5.5719147e-02   5.3302586e-02   5.0572537e-02   4.7585953e-02   4.4415435e-02   4.1146116e-02   3.7871285e-02   3.4688484e-02   3.1697110e-02   2.8997006e-02   2.6686450e-02   2.4858604e-02   2.3597549e-02   2.2975711e-02   2.3052855e-02   2.3875597e-02   2.5476693e-02   2.7874020e-02   3.1069534e-02   3.5048829e-02   3.9781860e-02   4.5224763e-02   5.1321667e-02   5.8005364e-02   6.5197212e-02   7.2807502e-02   8.0736997e-02   8.8879499e-02   9.7124724e-02   1.0536056e-01   1.1347470e-01   1.2135642e-01   1.2889877e-01   1.3600042e-01   1.4256656e-01   1.4850903e-01   1.5374608e-01   1.5820317e-01   1.6181494e-01   1.6452761e-01   1.6630087e-01   1.6710903e-01   1.6694204e-01   1.6580673e-01   1.6372860e-01   1.6075298e-01   1.5694440e-01   1.5238376e-01   1.4716410e-01   1.4138666e-01   1.3515769e-01   1.2858608e-01   1.2178069e-01   1.1484694e-01   1.0788301e-01   1.0097743e-01   9.4208268e-02   8.7643211e-02   8.1339048e-02   7.5340262e-02   6.9677775e-02   6.4369024e-02   5.9419514e-02   5.4825061e-02   5.0573740e-02   4.6646557e-02   4.3016728e-02   3.9648944e-02   3.6500218e-02   3.3522336e-02   3.0664553e-02   2.7875630e-02   2.5105570e-02   2.2308005e-02   1.9443637e-02   1.6484072e-02   1.3414527e-02   1.0234190e-02   6.9547005e-03   3.5984423e-03   1.9746707e-04  -3.2076523e-03  -6.5701929e-03  -9.8411836e-03  -1.2973937e-02  -1.5927695e-02  -1.8669355e-02  -2.1173604e-02  -2.3423012e-02  -2.5409229e-02  -2.7134298e-02  -2.8610261e-02  -2.9857011e-02  -3.0900069e-02  -3.1769613e-02  -3.2500893e-02  -3.3134936e-02  -3.3717463e-02  -3.4294950e-02  -3.4909408e-02  -3.5594477e-02  -3.6373969e-02  -3.7262161e-02  -3.8264287e-02  -3.9376297e-02  -4.0584570e-02  -4.1866915e-02  -4.3195113e-02  -4.4537884e-02  -4.5863087e-02  -4.7138869e-02  -4.8334169e-02  -4.9419471e-02  -5.0368433e-02  -5.1159905e-02  -5.1779093e-02  -5.2217261e-02  -5.2470818e-02  -5.2541357e-02  -5.2437147e-02  -5.2174452e-02  -5.1776276e-02  -5.1267998e-02  -5.0671627e-02  -5.0000737e-02  -4.9257213e-02  -4.8430471e-02  -4.7499099e-02  -4.6433964e-02  -4.5201381e-02  -4.3765651e-02  -4.2091454e-02  -4.0146966e-02  -3.7907412e-02  -3.5357873e-02  -3.2494862e-02  -2.9327349e-02  -2.5878183e-02  -2.2185827e-02  -1.8305168e-02  -1.4306362e-02  -1.0272059e-02  -6.2944309e-03  -2.4728757e-03   1.0883609e-03   4.2836937e-03   7.0109391e-03   9.1773567e-03   1.0707094e-02   1.1548642e-02   1.1679513e-02   1.1106061e-02   9.8586674e-03   7.9844431e-03   5.5394638e-03   2.5813312e-03  -8.3746560e-04  -4.6742848e-03  -8.8979496e-03  -1.3487187e-02  -1.8427340e-02  -2.3707020e-02  -2.9314945e-02  -3.5235696e-02  -4.1443797e-02  -4.7897692e-02  -5.4536208e-02  -6.1278714e-02  -6.8028196e-02  -7.4675709e-02  -8.1105053e-02  -8.7197424e-02  -9.2836539e-02  -9.7914622e-02  -1.0233871e-01  -1.0603548e-01  -1.0895330e-01  -1.1106216e-01  -1.1235380e-01  -1.1284253e-01  -1.1256585e-01  -1.1158325e-01  -1.0997264e-01  -1.0782551e-01  -1.0524329e-01  -1.0233710e-01  -9.9230661e-02  -9.6064045e-02  -9.2995091e-02  -9.0197270e-02  -8.7854242e-02  -8.6149671e-02  -8.5247433e-02  -8.5258381e-02  -8.6195922e-02  -8.7927527e-02  -9.0129043e-02  -9.2247530e-02  -9.3480807e-02  -9.2785989e-02  -8.8931168e-02  -8.0600915e-02  -6.6556250e-02  -4.5832530e-02  -1.7938572e-02   1.6990969e-02   5.8129196e-02   1.0398977e-01   1.5254460e-01   2.0139694e-01   2.4797897e-01   2.8974849e-01   3.2436730e-01   3.4985008e-01   3.6467736e-01   3.6786801e-01   3.5901116e-01   3.3826163e-01   3.0630548e-01   2.6430125e-01   2.1380182e-01   1.5666152e-01   9.4934992e-02   3.0774312e-02  -3.3669516e-02  -9.6336986e-02  -1.5534002e-01  -2.0902876e-01  -2.5604250e-01  -2.9534311e-01  -3.2623105e-01  -3.4834599e-01  -3.6165466e-01  -3.6642769e-01  -3.6320661e-01  -3.5276242e-01  -3.3604816e-01  -3.1414825e-01  -2.8822714e-01  -2.5947954e-01  -2.2908386e-01  -1.9816021e-01  -1.6773419e-01  -1.3870736e-01  -1.1183509e-01  -8.7712560e-02  -6.6769304e-02  -4.9270738e-02  -3.5325093e-02  -2.4894614e-02  -1.7811067e-02  -1.3795663e-02  -1.2482339e-02  -1.3442388e-02  -1.6208693e-02  -2.0298415e-02  -2.5233319e-02  -3.0557506e-02  -3.5852534e-02  -4.0749407e-02  -4.4937007e-02  -4.8167358e-02  -5.0258492e-02  -5.1094994e-02  -5.0625679e-02  -4.8858382e-02  -4.5852671e-02  -4.1711562e-02  -3.6573069e-02  -3.0602450e-02  -2.3985488e-02  -1.6921649e-02  -9.6157585e-03  -2.2686199e-03   4.9315046e-03   1.1815117e-02   1.8235809e-02   2.4074156e-02   2.9241566e-02   3.3682766e-02   3.7375367e-02   4.0326287e-02   4.2566423e-02   4.4145805e-02   4.5130457e-02   4.5600272e-02   4.5646146e-02   4.5365211e-02   4.4854942e-02   4.4208275e-02   4.3511026e-02   4.2841059e-02   4.2267666e-02   4.1850070e-02   4.1635102e-02   4.1655273e-02   4.1928519e-02   4.2459718e-02   4.3242782e-02   4.4261966e-02   4.5492381e-02   4.6900944e-02   4.8448822e-02   5.0095005e-02   5.1799733e-02   5.3527097e-02   5.5247522e-02   5.6941009e-02   5.8600892e-02   6.0236667e-02   6.1874579e-02   6.3555503e-02   6.5330842e-02   6.7258022e-02   6.9396660e-02   7.1804937e-02   7.4534998e-02   7.7627257e-02   8.1104980e-02   8.4970735e-02   8.9205243e-02   9.3768266e-02   9.8600705e-02   1.0362715e-01   1.0875878e-01   1.1389707e-01   1.1893850e-01   1.2377948e-01   1.2832055e-01   1.3246898e-01   1.3614022e-01   1.3925942e-01   1.4176338e-01   1.4360263e-01   1.4474230e-01   1.4516146e-01   1.4485169e-01   1.4381646e-01   1.4207193e-01   1.3964792e-01   1.3658759e-01   1.3294529e-01   1.2878359e-01   1.2417080e-01   1.1917972e-01   1.1388703e-01   1.0837229e-01   1.0271557e-01   9.6994135e-02   9.1279800e-02   8.5637549e-02   8.0124617e-02   7.4789512e-02   6.9670739e-02   6.4795278e-02   6.0177768e-02   5.5821546e-02   5.1721213e-02   4.7864917e-02   4.4234955e-02   4.0807333e-02   3.7552426e-02   3.4437849e-02   3.1432105e-02   2.8506982e-02   2.5638098e-02   2.2804509e-02   1.9988942e-02   1.7179258e-02   1.4369929e-02   1.1561943e-02   8.7609199e-03   5.9747254e-03   3.2125157e-03   4.8608539e-04  -2.1881342e-03  -4.7888957e-03  -7.2923664e-03  -9.6754050e-03  -1.1918133e-02  -1.4004822e-02  -1.5923669e-02  -1.7667012e-02  -1.9232566e-02  -2.0624543e-02  -2.1853219e-02  -2.2932752e-02  -2.3878520e-02  -2.4705277e-02  -2.5426389e-02  -2.6053568e-02  -2.6596404e-02  -2.7061442e-02  -2.7451167e-02  -2.7763737e-02  -2.7994180e-02  -2.8136631e-02  -2.8186046e-02  -2.8138258e-02  -2.7989021e-02  -2.7733911e-02  -2.7369846e-02  -2.6897001e-02  -2.6319591e-02  -2.5645347e-02  -2.4884483e-02  -2.4049026e-02  -2.3153250e-02  -2.2215084e-02  -2.1256802e-02  -2.0303498e-02  -1.9380013e-02  -1.8508445e-02  -1.7707555e-02  -1.6993626e-02  -1.6381104e-02  -1.5881665e-02  -1.5502060e-02  -1.5242053e-02  -1.5093033e-02  -1.5036712e-02  -1.5043255e-02  -1.5069359e-02  -1.5057924e-02  -1.4940758e-02  -1.4644267e-02  -1.4096262e-02  -1.3231505e-02  -1.1995314e-02  -1.0346418e-02  -8.2597720e-03  -5.7287540e-03  -2.7666227e-03   5.9234984e-04   4.2922136e-03   8.2557171e-03   1.2385818e-02   1.6568123e-02   2.0674684e-02   2.4569909e-02   2.8118162e-02   3.1191624e-02   3.3677649e-02   3.5485691e-02   3.6553688e-02   3.6852554e-02   3.6386322e-02   3.5186837e-02   3.3304818e-02   3.0800160e-02   2.7733299e-02   2.4158750e-02   2.0121665e-02   1.5657220e-02   1.0791633e-02   5.5435971e-03  -7.3967159e-05  -6.0507771e-03  -1.2374019e-02  -1.9022185e-02  -2.5959972e-02  -3.3135642e-02  -4.0480990e-02  -4.7912951e-02  -5.5335675e-02  -6.2642948e-02  -6.9721932e-02  -7.6458799e-02  -8.2744986e-02  -8.8481905e-02  -9.3583116e-02  -9.7974899e-02  -1.0159672e-01  -1.0440280e-01  -1.0636493e-01  -1.0747528e-01  -1.0774805e-01  -1.0722110e-01  -1.0595982e-01  -1.0406370e-01  -1.0167226e-01  -9.8966882e-02  -9.6166513e-02  -9.3515444e-02  -9.1260166e-02  -8.9612695e-02  -8.8701733e-02  -8.8516853e-02  -8.8852289e-02  -8.9258094e-02  -8.9010239e-02  -8.7115869e-02  -8.2370598e-02  -7.3478622e-02  -5.9232213e-02  -3.8725112e-02  -1.1552548e-02   2.2054185e-02   6.1191208e-02   1.0434455e-01   1.4952696e-01   1.9445473e-01   2.3673423e-01   2.7403848e-01   3.0426212e-01   3.2564871e-01   3.3688610e-01   3.3716713e-01   3.2621491e-01   3.0427449e-01   2.7207579e-01   2.3077417e-01   1.8187463e-01   1.2714478e-01   6.8521328e-02   8.0143626e-03  -5.2385643e-02  -1.1079268e-01  -1.6549700e-01  -2.1502186e-01  -2.5816543e-01  -2.9402878e-01  -3.2203006e-01  -3.4190415e-01  -3.5368786e-01  -3.5769278e-01  -3.5446963e-01  -3.4476690e-01  -3.2948601e-01  -3.0963414e-01  -2.8627646e-01  -2.6048989e-01  -2.3332137e-01  -2.0575275e-01  -1.7867246e-01  -1.5285298e-01  -1.2893380e-01  -1.0741044e-01  -8.8630995e-02  -7.2799876e-02  -5.9987155e-02  -5.0140928e-02  -4.3101469e-02  -3.8617294e-02  -3.6363842e-02  -3.5964959e-02  -3.7015682e-02  -3.9103525e-02  -4.1826313e-02  -4.4806282e-02  -4.7701189e-02  -5.0213145e-02  -5.2095393e-02  -5.3156643e-02  -5.3262379e-02  -5.2333348e-02  -5.0342679e-02  -4.7312600e-02  -4.3310121e-02  -3.8440921e-02  -3.2841578e-02  -2.6670731e-02  -2.0100111e-02  -1.3306639e-02  -6.4658310e-03   2.5440893e-04   6.7001088e-03   1.2737156e-02   1.8256064e-02   2.3174946e-02   2.7440282e-02   3.1025852e-02   3.3930959e-02   3.6178676e-02   3.7813752e-02   3.8899404e-02   3.9512970e-02   3.9741015e-02   3.9674588e-02   3.9404989e-02   3.9019861e-02   3.8599234e-02   3.8211956e-02   3.7913617e-02   3.7746493e-02   3.7740898e-02   3.7916769e-02   3.8284539e-02   3.8845409e-02   3.9592114e-02   4.0511100e-02   4.1585637e-02   4.2798226e-02   4.4131289e-02   4.5567227e-02   4.7089873e-02   4.8687731e-02   5.0357369e-02   5.2105002e-02   5.3945475e-02   5.5899296e-02   5.7989018e-02   6.0235856e-02   6.2656757e-02   6.5262115e-02   6.8054518e-02   7.1028754e-02   7.4173056e-02   7.7471206e-02   8.0904499e-02   8.4452202e-02   8.8089904e-02   9.1786972e-02   9.5505397e-02   9.9200877e-02   1.0282452e-01   1.0632318e-01   1.0963834e-01   1.1270509e-01   1.1545289e-01   1.1780858e-01   1.1970122e-01   1.2106739e-01   1.2185525e-01   1.2202680e-01   1.2155922e-01   1.2044601e-01   1.1869823e-01   1.1634488e-01   1.1343127e-01   1.1001541e-01   1.0616386e-01   1.0194858e-01   9.7445122e-02   9.2731222e-02   8.7884660e-02   8.2980222e-02   7.8087391e-02   7.3269671e-02   6.8584562e-02   6.4082652e-02   5.9805281e-02   5.5781598e-02   5.2026618e-02   4.8541170e-02   4.5313268e-02   4.2320196e-02   3.9531047e-02   3.6909508e-02   3.4416926e-02   3.2015627e-02   2.9671839e-02   2.7357256e-02   2.5048708e-02   2.2726566e-02   2.0373530e-02   1.7975025e-02   1.5520934e-02   1.3007161e-02   1.0435577e-02   7.8126163e-03   5.1482595e-03   2.4563611e-03  -2.4449885e-04  -2.9308460e-03  -5.5753780e-03  -8.1487478e-03  -1.0620665e-02  -1.2959784e-02  -1.5133647e-02  -1.7110089e-02  -1.8860221e-02  -2.0361949e-02  -2.1602511e-02  -2.2579071e-02  -2.3297705e-02  -2.3772127e-02  -2.4023190e-02  -2.4078673e-02  -2.3972118e-02  -2.3740339e-02  -2.3420608e-02  -2.3048803e-02  -2.2658595e-02  -2.2280642e-02  -2.1940941e-02  -2.1658290e-02  -2.1441489e-02  -2.1287534e-02  -2.1182220e-02  -2.1103474e-02  -2.1025939e-02  -2.0924925e-02  -2.0779252e-02  -2.0573673e-02  -2.0300997e-02  -1.9963093e-02  -1.9569926e-02  -1.9136862e-02  -1.8681510e-02  -1.8221608e-02  -1.7774350e-02  -1.7355787e-02  -1.6978281e-02  -1.6645595e-02  -1.6347814e-02  -1.6058866e-02  -1.5737606e-02  -1.5331260e-02  -1.4779631e-02  -1.4019298e-02  -1.2987822e-02  -1.1627829e-02  -9.8907234e-03  -7.7399569e-03  -5.1536755e-03  -2.1263919e-03   1.3300203e-03   5.1847668e-03   9.3853615e-03   1.3855014e-02   1.8492444e-02   2.3175043e-02   2.7764676e-02   3.2114777e-02   3.6077669e-02   3.9511953e-02   4.2290955e-02   4.4312434e-02   4.5506908e-02   4.5840294e-02   4.5309102e-02   4.3931237e-02   4.1737089e-02   3.8763220e-02   3.5048526e-02   3.0632209e-02   2.5553089e-02   1.9850107e-02   1.3564109e-02   6.7410712e-03  -5.6357152e-04  -8.2808775e-03  -1.6326374e-02  -2.4600716e-02  -3.2992108e-02  -4.1379152e-02  -4.9633644e-02  -5.7623851e-02  -6.5219088e-02  -7.2295728e-02  -7.8743605e-02  -8.4471309e-02  -8.9409540e-02  -9.3512889e-02  -9.6760834e-02  -9.9158125e-02  -1.0073362e-01  -1.0153670e-01  -1.0163208e-01  -1.0109531e-01  -1.0001121e-01  -9.8475454e-02  -9.6597889e-02  -9.4505708e-02  -9.2344936e-02  -9.0279837e-02  -8.8490127e-02  -8.7163428e-02  -8.6477491e-02  -8.6568516e-02  -8.7488022e-02  -8.9154866e-02  -9.1307841e-02  -9.3463261e-02  -9.4887097e-02  -9.4598819e-02  -9.1425114e-02  -8.4113246e-02  -7.1498834e-02  -5.2703729e-02  -2.7322289e-02   4.4499751e-03   4.1775946e-02   8.3227971e-02   1.2691068e-01   1.7062620e-01   2.1205435e-01   2.4892758e-01   2.7918634e-01   3.0110616e-01   3.1339107e-01   3.1523208e-01   3.0633228e-01   2.8690135e-01   2.5762273e-01   2.1959748e-01   1.7426979e-01   1.2333970e-01   6.8669778e-02   1.2192028e-02  -4.4180397e-02  -9.8634160e-02  -1.4952704e-01  -1.9544688e-01  -2.3525546e-01  -2.6811542e-01  -2.9350040e-01  -3.1119029e-01  -3.2125473e-01  -3.2402639e-01  -3.2006553e-01  -3.1011798e-01  -2.9506952e-01  -2.7589918e-01  -2.5363349e-01  -2.2930280e-01  -2.0390094e-01  -1.7834933e-01  -1.5346812e-01  -1.2995581e-01  -1.0837730e-01  -8.9158837e-02  -7.2588030e-02  -5.8818355e-02  -4.7878494e-02  -3.9686474e-02  -3.4067289e-02  -3.0772001e-02  -2.9496337e-02  -2.9897808e-02  -3.1612034e-02  -3.4269125e-02  -3.7509605e-02  -4.0998232e-02  -4.4434285e-02  -4.7557846e-02  -5.0152698e-02  -5.2047188e-02  -5.3113960e-02  -5.3268604e-02  -5.2467017e-02  -5.0701962e-02  -4.7999915e-02  -4.4418715e-02  -4.0045331e-02  -3.4992697e-02  -2.9395269e-02  -2.3403452e-02  -1.7177082e-02  -1.0878370e-02  -4.6650333e-03   1.3161681e-03   6.9359239e-03   1.2088697e-02   1.6697449e-02   2.0715387e-02   2.4124670e-02   2.6933211e-02   2.9171059e-02   3.0887155e-02   3.2145900e-02   3.3022150e-02   3.3594202e-02   3.3936261e-02   3.4113039e-02   3.4178210e-02   3.4175799e-02   3.4141961e-02   3.4105435e-02   3.4086993e-02   3.4099601e-02   3.4150524e-02   3.4244952e-02   3.4389269e-02   3.4592216e-02   3.4864165e-02   3.5216436e-02   3.5662015e-02   3.6217220e-02   3.6902769e-02   3.7743168e-02   3.8764917e-02   3.9994949e-02   4.1460146e-02   4.3187438e-02   4.5203071e-02   4.7530089e-02   5.0184771e-02   5.3173851e-02   5.6493555e-02   6.0129932e-02   6.4059143e-02   6.8247033e-02   7.2648686e-02   7.7209145e-02   8.1865417e-02   8.6548996e-02   9.1187853e-02   9.5707302e-02   1.0003017e-01   1.0407768e-01   1.0777203e-01   1.1104033e-01   1.1381803e-01   1.1605047e-01   1.1769250e-01   1.1870792e-01   1.1906986e-01   1.1876202e-01   1.1777948e-01   1.1612874e-01   1.1382736e-01   1.1090411e-01   1.0739997e-01   1.0336923e-01   9.8879286e-02   9.4008570e-02   8.8842911e-02   8.3471783e-02   7.7985236e-02   7.2471325e-02   6.7013593e-02   6.1688613e-02   5.6563962e-02   5.1696945e-02   4.7134122e-02   4.2911373e-02   3.9053642e-02   3.5573683e-02   3.2470396e-02   2.9728174e-02   2.7317832e-02   2.5198402e-02   2.3319109e-02   2.1621818e-02   2.0044660e-02   1.8526769e-02   1.7013079e-02   1.5457933e-02   1.3826782e-02   1.2096204e-02   1.0253216e-02   8.2947969e-03   6.2277487e-03   4.0684914e-03   1.8423269e-03  -4.1832127e-04  -2.6764699e-03  -4.8928364e-03  -7.0272806e-03  -9.0401037e-03  -1.0893922e-02  -1.2556165e-02  -1.4001701e-02  -1.5214593e-02  -1.6188074e-02  -1.6922666e-02  -1.7423554e-02  -1.7698613e-02  -1.7757617e-02  -1.7612246e-02  -1.7276505e-02  -1.6767327e-02  -1.6104928e-02  -1.5312891e-02  -1.4418094e-02  -1.3449833e-02  -1.2437668e-02  -1.1408886e-02  -1.0387258e-02  -9.3939131e-03  -8.4494553e-03  -7.5752509e-03  -6.7925611e-03  -6.1199771e-03  -5.5709508e-03  -5.1532040e-03  -4.8699736e-03  -4.7207759e-03  -4.6996278e-03  -4.7911918e-03  -4.9671003e-03  -5.1846245e-03  -5.3884601e-03  -5.5145555e-03  -5.4940864e-03  -5.2565404e-03  -4.7325273e-03  -3.8576758e-03  -2.5777483e-03  -8.5328051e-04   1.3376589e-03   3.9980861e-03   7.1108896e-03   1.0637244e-02   1.4514860e-02   1.8657261e-02   2.2955725e-02   2.7284010e-02   3.1504115e-02   3.5471436e-02   3.9039600e-02   4.2066658e-02   4.4424009e-02   4.6006954e-02   4.6743069e-02   4.6594559e-02   4.5554615e-02   4.3641380e-02   4.0892341e-02   3.7359137e-02   3.3102136e-02   2.8185180e-02   2.2671724e-02   1.6623781e-02   1.0104329e-02   3.1820953e-03  -4.0637556e-03  -1.1541391e-02  -1.9147258e-02  -2.6769132e-02  -3.4289779e-02  -4.1590899e-02  -4.8557876e-02  -5.5085266e-02  -6.1082021e-02  -6.6475261e-02  -7.1212063e-02  -7.5259611e-02  -7.8604690e-02  -8.1253029e-02  -8.3227864e-02  -8.4567016e-02  -8.5318849e-02  -8.5537936e-02  -8.5281326e-02  -8.4606417e-02  -8.3571178e-02  -8.2236620e-02  -8.0670722e-02  -7.8952462e-02  -7.7175055e-02  -7.5448520e-02  -7.3901211e-02  -7.2676594e-02  -7.1919074e-02  -7.1745340e-02  -7.2203552e-02  -7.3226042e-02  -7.4580506e-02  -7.5825039e-02  -7.6277841e-02  -7.5018505e-02  -7.0937770e-02  -6.2845821e-02  -4.9635288e-02  -3.0474318e-02  -4.9870537e-03   2.6622239e-02   6.3527964e-02   1.0432782e-01   1.4715779e-01   1.8985254e-01   2.3012469e-01   2.6574020e-01   2.9467355e-01   3.1523329e-01   3.2615326e-01   3.2664908e-01   3.1644204e-01   2.9575308e-01   2.6526989e-01   2.2609136e-01   1.7965521e-01   1.2765471e-01   7.1949465e-02   1.4474428e-02  -4.2849319e-02  -9.8197613e-02  -1.4991542e-01  -1.9657469e-01  -2.3701656e-01  -2.7037849e-01  -2.9610748e-01  -3.1396046e-01  -3.2399211e-01  -3.2653083e-01  -3.2214429e-01  -3.1159756e-01  -2.9580684e-01  -2.7579142e-01  -2.5262608e-01  -2.2739527e-01  -2.0115034e-01  -1.7487135e-01  -1.4943561e-01  -1.2559406e-01  -1.0395548e-01  -8.4976735e-02  -6.8958598e-02  -5.6047993e-02  -4.6247693e-02  -3.9432476e-02  -3.5369262e-02  -3.3739026e-02  -3.4159356e-02  -3.6207310e-02  -3.9442224e-02  -4.3427247e-02  -4.7747862e-02  -5.2026307e-02  -5.5932008e-02  -5.9188788e-02  -6.1579623e-02  -6.2949345e-02  -6.3205162e-02  -6.2314260e-02  -6.0298106e-02  -5.7224511e-02  -5.3199133e-02  -4.8357240e-02  -4.2855377e-02  -3.6862249e-02  -3.0548792e-02  -2.4078719e-02  -1.7601460e-02  -1.1248405e-02  -5.1315903e-03   6.5684051e-04   6.0453693e-03   1.0983583e-02   1.5441454e-02   1.9407213e-02   2.2884247e-02   2.5887552e-02   2.8440127e-02   3.0569582e-02   3.2304936e-02   3.3673744e-02   3.4700015e-02   3.5403600e-02   3.5801348e-02   3.5909267e-02   3.5744022e-02   3.5322626e-02   3.4661101e-02   3.3774401e-02   3.2679029e-02   3.1397115e-02   2.9959230e-02   2.8404610e-02   2.6779782e-02   2.5137196e-02   2.3534479e-02   2.2033710e-02   2.0699664e-02   1.9596813e-02   1.8786014e-02   1.8322123e-02   1.8253258e-02   1.8621610e-02   1.9464573e-02   2.0814720e-02   2.2698668e-02   2.5135928e-02   2.8138224e-02   3.1708987e-02   3.5842596e-02   4.0523221e-02   4.5723416e-02   5.1402980e-02   5.7508878e-02   6.3976303e-02   7.0730122e-02   7.7686114e-02   8.4752123e-02   9.1829404e-02   9.8814444e-02   1.0560135e-01   1.1208454e-01   1.1816135e-01   1.2373430e-01   1.2871347e-01   1.3301960e-01   1.3658776e-01   1.3937059e-01   1.4133942e-01   1.4248333e-01   1.4280785e-01   1.4233416e-01   1.4109858e-01   1.3915095e-01   1.3655118e-01   1.3336448e-01   1.2965707e-01   1.2549418e-01   1.2094039e-01   1.1606002e-01   1.1091607e-01   1.0556798e-01   1.0007037e-01   9.4473702e-02   8.8826129e-02   8.3174420e-02   7.7563494e-02   7.2035155e-02   6.6627058e-02   6.1372514e-02   5.6300830e-02   5.1437274e-02   4.6802199e-02   4.2409785e-02   3.8267337e-02   3.4375854e-02   3.0731735e-02   2.7328554e-02   2.4157873e-02   2.1209203e-02   1.8469997e-02   1.5926281e-02   1.3563685e-02   1.1367835e-02   9.3232877e-03   7.4115875e-03   5.6100470e-03   3.8921885e-03   2.2296161e-03   5.9418531e-04  -1.0407866e-03  -2.7003354e-03  -4.4073959e-03  -6.1811103e-03  -8.0343805e-03  -9.9720432e-03  -1.1990725e-02  -1.4079983e-02  -1.6223175e-02  -1.8397186e-02  -2.0571809e-02  -2.2710426e-02  -2.4772939e-02  -2.6720021e-02  -2.8516400e-02  -3.0131904e-02  -3.1541262e-02  -3.2724385e-02  -3.3667946e-02  -3.4367917e-02  -3.4831748e-02  -3.5078802e-02  -3.5138772e-02  -3.5049027e-02  -3.4851965e-02  -3.4592551e-02  -3.4315377e-02  -3.4060913e-02  -3.3861884e-02  -3.3741147e-02  -3.3711565e-02  -3.3777069e-02  -3.3933635e-02  -3.4169716e-02  -3.4466718e-02  -3.4800408e-02  -3.5143513e-02  -3.5468756e-02  -3.5751163e-02  -3.5968800e-02  -3.6102174e-02  -3.6133603e-02  -3.6047770e-02  -3.5833066e-02  -3.5482024e-02  -3.4989883e-02  -3.4352126e-02  -3.3562728e-02  -3.2614149e-02  -3.1498473e-02  -3.0208046e-02  -2.8734985e-02  -2.7070609e-02  -2.5206047e-02  -2.3134131e-02  -2.0851588e-02  -1.8360380e-02  -1.5667843e-02  -1.2786210e-02  -9.7325819e-03  -6.5300323e-03  -3.2095998e-03   1.8776536e-04   3.6103439e-03   6.9963279e-03   1.0275678e-02   1.3372471e-02   1.6207333e-02   1.8700080e-02   2.0773318e-02   2.2357310e-02   2.3394693e-02   2.3842910e-02   2.3674492e-02   2.2877907e-02   2.1460801e-02   1.9453887e-02   1.6911595e-02   1.3907068e-02   1.0522428e-02   6.8377299e-03   2.9220314e-03  -1.1722329e-03  -5.4121618e-03  -9.7850025e-03  -1.4296282e-02  -1.8965617e-02  -2.3820744e-02  -2.8890293e-02  -3.4196071e-02  -3.9745999e-02  -4.5528865e-02  -5.1511475e-02  -5.7637807e-02  -6.3829526e-02  -6.9988163e-02  -7.5999812e-02  -8.1742171e-02  -8.7092388e-02  -9.1934199e-02  -9.6163912e-02  -9.9695735e-02  -1.0246699e-01  -1.0444275e-01  -1.0561797e-01  -1.0601534e-01  -1.0567986e-01  -1.0467285e-01  -1.0306764e-01  -1.0094680e-01  -9.8399804e-02  -9.5520582e-02  -9.2406351e-02  -8.9159022e-02  -8.5889004e-02  -8.2719211e-02  -7.9786743e-02  -7.7241113e-02  -7.5238744e-02  -7.3931728e-02  -7.3446533e-02  -7.3849709e-02  -7.5102910e-02  -7.7013535e-02  -7.9187875e-02  -8.0994966e-02  -8.1553085e-02  -7.9752607e-02  -7.4326317e-02  -6.3973016e-02  -4.7530524e-02  -2.4176480e-02   6.3840261e-03   4.3790986e-02   8.6994445e-02   1.3431637e-01   1.8358893e-01   2.3233739e-01   2.7797725e-01   3.1800335e-01   3.5015750e-01   3.7256665e-01   3.8384552e-01   3.8315987e-01   3.7025037e-01   3.4542119e-01   3.0949916e-01   2.6376965e-01   2.0989437e-01   1.4981615e-01   8.5656456e-02   1.9611451e-02  -4.6147847e-02  -1.0956623e-01  -1.6878241e-01  -2.2219257e-01  -2.6849831e-01  -3.0673727e-01  -3.3629617e-01  -3.5690721e-01  -3.6863028e-01  -3.7182379e-01  -3.6710671e-01  -3.5531451e-01  -3.3745048e-01  -3.1463381e-01  -2.8804678e-01  -2.5888431e-01  -2.2830830e-01  -1.9740868e-01  -1.6717129e-01  -1.3845255e-01  -1.1196085e-01  -8.8245351e-02  -6.7692789e-02  -5.0531058e-02  -3.6837643e-02  -2.6551715e-02  -1.9489856e-02  -1.5365392e-02  -1.3810860e-02  -1.4402579e-02  -1.6685119e-02  -2.0193042e-02  -2.4468842e-02  -2.9078010e-02  -3.3622794e-02  -3.7754925e-02  -4.1185687e-02  -4.3691374e-02  -4.5114084e-02  -4.5359649e-02  -4.4394574e-02  -4.2242206e-02  -3.8977031e-02  -3.4716278e-02  -2.9609628e-02  -2.3828779e-02  -1.7558219e-02  -1.0987264e-02  -4.3026704e-03   2.3188555e-03   8.7181974e-03   1.4760195e-02   2.0337513e-02   2.5372149e-02   2.9815703e-02   3.3648946e-02   3.6880276e-02   3.9542478e-02   4.1687541e-02   4.3380162e-02   4.4691596e-02   4.5695097e-02   4.6462582e-02   4.7061601e-02   4.7552244e-02   4.7984126e-02   4.8394259e-02   4.8806865e-02   4.9235063e-02   4.9682961e-02   5.0147063e-02   5.0617420e-02   5.1079587e-02   5.1517397e-02   5.1915917e-02   5.2263895e-02   5.2555072e-02   5.2788380e-02   5.2968099e-02   5.3104790e-02   5.3216924e-02   5.3332629e-02   5.3490955e-02   5.3742211e-02   5.4147412e-02   5.4776861e-02   5.5707265e-02   5.7016855e-02   5.8778912e-02   6.1054829e-02   6.3888053e-02   6.7300042e-02   7.1288617e-02   7.5827757e-02   8.0867487e-02   8.6334072e-02   9.2132163e-02   9.8149445e-02   1.0426247e-01   1.1034182e-01   1.1625604e-01   1.2187520e-01   1.2707572e-01   1.3174601e-01   1.3579127e-01   1.3913629e-01   1.4172584e-01   1.4352373e-01   1.4451170e-01   1.4468901e-01   1.4407215e-01   1.4269377e-01   1.4060061e-01   1.3785067e-01   1.3451092e-01   1.3065614e-01   1.2636813e-01   1.2173400e-01   1.1684300e-01   1.1178204e-01   1.0663120e-01   1.0146053e-01   9.6328474e-02   9.1281371e-02   8.6353209e-02   8.1565617e-02   7.6929129e-02   7.2446005e-02   6.8113452e-02   6.3925924e-02   5.9876059e-02   5.5954775e-02   5.2151424e-02   4.8454551e-02   4.4853049e-02   4.1337205e-02   3.7899066e-02   3.4532128e-02   3.1231305e-02   2.7994153e-02   2.4822728e-02   2.1724378e-02   1.8710607e-02   1.5794935e-02   1.2990971e-02   1.0311097e-02   7.7657518e-03   5.3628428e-03   3.1063813e-03   9.9451809e-04  -9.8152291e-04  -2.8363487e-03  -4.5874398e-03  -6.2521788e-03  -7.8466580e-03  -9.3861049e-03  -1.0885213e-02  -1.2357140e-02  -1.3811486e-02  -1.5252749e-02  -1.6680442e-02  -1.8090593e-02  -1.9477199e-02  -2.0832416e-02  -2.2145331e-02  -2.3400660e-02  -2.4579046e-02  -2.5659097e-02  -2.6619745e-02  -2.7441587e-02  -2.8107203e-02  -2.8601613e-02  -2.8914073e-02  -2.9040873e-02  -2.8987144e-02  -2.8766383e-02  -2.8398457e-02  -2.7907696e-02  -2.7322001e-02  -2.6672649e-02  -2.5993445e-02  -2.5318249e-02  -2.4677341e-02  -2.4094457e-02  -2.3586001e-02  -2.3161875e-02  -2.2826027e-02  -2.2575830e-02  -2.2401155e-02  -2.2284432e-02  -2.2202363e-02  -2.2128756e-02  -2.2037112e-02  -2.1902125e-02  -2.1700499e-02  -2.1412094e-02  -2.1021860e-02  -2.0521936e-02  -1.9912449e-02  -1.9200104e-02  -1.8395287e-02  -1.7509213e-02  -1.6551745e-02  -1.5529181e-02  -1.4441472e-02  -1.3279923e-02  -1.2027173e-02  -1.0659921e-02  -9.1532283e-03  -7.4846095e-03  -5.6366202e-03  -3.5978965e-03  -1.3633319e-03   1.0660889e-03   3.6831270e-03   6.4733202e-03   9.4138257e-03   1.2472834e-02   1.5609278e-02   1.8772355e-02   2.1901058e-02   2.4924501e-02   2.7764224e-02   3.0339051e-02   3.2571019e-02   3.4389902e-02   3.5735676e-02   3.6560716e-02   3.6833561e-02   3.6543547e-02   3.5703103e-02   3.4344593e-02   3.2511533e-02   3.0247539e-02   2.7587229e-02   2.4551254e-02   2.1145211e-02   1.7361088e-02   1.3180108e-02   8.5767853e-03   3.5244561e-03  -1.9978393e-03  -7.9982016e-03  -1.4466248e-02  -2.1370224e-02  -2.8656536e-02  -3.6250456e-02  -4.4057211e-02  -5.1963606e-02  -5.9841228e-02  -6.7551995e-02  -7.4955296e-02  -8.1914735e-02  -8.8303327e-02  -9.4007512e-02  -9.8930735e-02  -1.0299683e-01  -1.0615276e-01  -1.0836998e-01  -1.0964431e-01  -1.0999463e-01  -1.0946166e-01  -1.0810766e-01  -1.0601799e-01  -1.0330374e-01  -1.0010381e-01  -9.6584288e-02  -9.2933673e-02  -8.9354534e-02  -8.6053481e-02  -8.3231493e-02  -8.1076271e-02  -7.9757073e-02  -7.9419476e-02  -8.0175208e-02  -8.2083135e-02  -8.5121208e-02  -8.9153302e-02  -9.3896494e-02  -9.8892494e-02  -1.0348546e-01  -1.0681090e-01  -1.0780484e-01  -1.0524514e-01  -9.7835289e-02  -8.4335814e-02  -6.3736612e-02  -3.5445727e-02   5.4681444e-04   4.3572947e-02   9.2282856e-02   1.4473137e-01   1.9853198e-01   2.5104806e-01   2.9959345e-01   3.4162152e-01   3.7488919e-01   3.9758764e-01   4.0843455e-01   4.0672606e-01   3.9235005e-01   3.6576589e-01   3.2795597e-01   2.8035358e-01   2.2475242e-01   1.6320401e-01   9.7910292e-02   3.1118488e-02  -3.4976728e-02  -9.8321217e-02  -1.5707750e-01  -2.0968631e-01  -2.5491051e-01  -2.9185984e-01  -3.1999827e-01  -3.3913660e-01  -3.4941315e-01  -3.5126351e-01  -3.4538034e-01  -3.3266448e-01  -3.1417110e-01  -2.9105528e-01  -2.6452038e-01  -2.3577035e-01  -2.0596572e-01  -1.7618390e-01  -1.4738600e-01  -1.2039270e-01  -9.5869751e-02  -7.4321198e-02  -5.6087470e-02  -4.1347648e-02  -3.0126841e-02  -2.2309332e-02  -1.7656772e-02  -1.5830299e-02  -1.6414857e-02  -1.8943569e-02  -2.2920994e-02  -2.7845581e-02  -3.3231609e-02  -3.8629482e-02  -4.3642437e-02  -4.7938263e-02  -5.1256226e-02  -5.3410217e-02  -5.4288763e-02  -5.3851768e-02  -5.2123916e-02  -4.9185502e-02  -4.5162308e-02  -4.0216025e-02  -3.4535426e-02  -2.8327023e-02  -2.1803937e-02  -1.5173380e-02  -8.6251023e-03  -2.3234906e-03   3.5955832e-03   9.0243249e-03   1.3881405e-02   1.8111221e-02   2.1684342e-02   2.4597746e-02   2.6873318e-02   2.8554608e-02   2.9703116e-02   3.0394979e-02   3.0717750e-02   3.0766580e-02   3.0639341e-02   3.0430892e-02   3.0227634e-02   3.0103364e-02   3.0116282e-02   3.0306545e-02   3.0694622e-02   3.1281518e-02   3.2051512e-02   3.2976851e-02   3.4023122e-02   3.5154006e-02   3.6334342e-02   3.7531308e-02   3.8715073e-02   3.9860403e-02   4.0948924e-02   4.1970651e-02   4.2924006e-02   4.3814970e-02   4.4656684e-02   4.5470092e-02   4.6284969e-02   4.7140025e-02   4.8081169e-02   4.9158109e-02   5.0420736e-02   5.1916473e-02   5.3688218e-02   5.5771815e-02   5.8193150e-02   6.0965933e-02   6.4090687e-02   6.7554563e-02   7.1331382e-02   7.5381339e-02   7.9650068e-02   8.4067763e-02   8.8549847e-02   9.3000275e-02   9.7316693e-02   1.0139552e-01   1.0513579e-01   1.0844207e-01   1.1122787e-01   1.1342023e-01   1.1496471e-01   1.1582907e-01   1.1600439e-01   1.1550384e-01   1.1436000e-01   1.1262155e-01   1.1034928e-01   1.0761107e-01   1.0447610e-01   1.0100921e-01   9.7267423e-02   9.3299479e-02   8.9147350e-02   8.4848145e-02   8.0435639e-02   7.5941321e-02   7.1395262e-02   6.6827234e-02   6.2267711e-02   5.7747443e-02   5.3295091e-02   4.8934305e-02   4.4682469e-02   4.0551910e-02   3.6552237e-02   3.2691913e-02   2.8978401e-02   2.5417463e-02   2.2012764e-02   1.8766551e-02   1.5681193e-02   1.2760315e-02   1.0008057e-02   7.4263451e-03   5.0121866e-03   2.7570302e-03   6.4820607e-04  -1.3291526e-03  -3.1912928e-03  -4.9562018e-03  -6.6437360e-03  -8.2745207e-03  -9.8680823e-03  -1.1441312e-02  -1.3007944e-02  -1.4578800e-02  -1.6161764e-02  -1.7760620e-02  -1.9373038e-02  -2.0989087e-02  -2.2591575e-02  -2.4158037e-02  -2.5662806e-02  -2.7078109e-02  -2.8374751e-02  -2.9523470e-02  -3.0497466e-02  -3.1275626e-02  -3.1845005e-02  -3.2201418e-02  -3.2348243e-02  -3.2294619e-02  -3.2054351e-02  -3.1645722e-02  -3.1091139e-02  -3.0415887e-02  -2.9646634e-02  -2.8810881e-02  -2.7937619e-02  -2.7058304e-02  -2.6206703e-02  -2.5416695e-02  -2.4718573e-02  -2.4135762e-02  -2.3683529e-02  -2.3369312e-02  -2.3192845e-02  -2.3145219e-02  -2.3208018e-02  -2.3354220e-02  -2.3550997e-02  -2.3762827e-02  -2.3953246e-02  -2.4084810e-02  -2.4117901e-02  -2.4009474e-02  -2.3712606e-02  -2.3177516e-02  -2.2354341e-02  -2.1197106e-02  -1.9667950e-02  -1.7740963e-02  -1.5405167e-02  -1.2666113e-02  -9.5454938e-03  -6.0784768e-03  -2.3096835e-03   1.7099731e-03   5.9239100e-03   1.0268708e-02   1.4673278e-02   1.9059434e-02   2.3343492e-02   2.7438276e-02   3.1255179e-02   3.4706627e-02   3.7709326e-02   4.0187595e-02   4.2075764e-02   4.3319790e-02   4.3879351e-02   4.3731477e-02   4.2875394e-02   4.1336477e-02   3.9166387e-02   3.6437816e-02   3.3235021e-02   2.9643542e-02   2.5742543e-02   2.1601149e-02   1.7277416e-02   1.2817241e-02   8.2519902e-03   3.5962016e-03  -1.1522013e-03  -6.0080812e-03  -1.0992817e-02  -1.6127958e-02  -2.1430449e-02  -2.6909256e-02  -3.2562301e-02  -3.8373311e-02  -4.4309400e-02  -5.0320440e-02  -5.6340707e-02  -6.2292278e-02  -6.8088914e-02  -7.3639362e-02  -7.8849999e-02  -8.3627745e-02  -8.7884433e-02  -9.1542387e-02  -9.4539209e-02  -9.6829941e-02  -9.8386944e-02  -9.9199648e-02  -9.9275993e-02  -9.8645778e-02  -9.7365050e-02  -9.5520291e-02  -9.3231282e-02  -9.0652245e-02  -8.7970958e-02  -8.5403448e-02  -8.3179735e-02  -8.1516945e-02  -8.0580588e-02  -8.0439489e-02  -8.1020063e-02  -8.2062382e-02  -8.3081633e-02  -8.3345695e-02  -8.1885107e-02  -7.7549818e-02  -6.9119412e-02  -5.5461501e-02  -3.5716513e-02  -9.4723055e-03   2.3110213e-02   6.1246559e-02   1.0356027e-01   1.4818638e-01   1.9292536e-01   2.3542173e-01   2.7334462e-01   3.0455218e-01   3.2722859e-01   3.3998750e-01   3.4194021e-01   3.3272855e-01   3.1252362e-01   2.8199356e-01   2.4224620e-01   1.9475324e-01   1.4126264e-01   8.3705146e-02   2.4099073e-02  -3.5542670e-02  -9.3299418e-02  -1.4741951e-01  -1.9638348e-01  -2.3895149e-01  -2.7419451e-01  -3.0150930e-01  -3.2061813e-01  -3.3155498e-01  -3.3463949e-01  -3.3044045e-01  -3.1973124e-01  -3.0344120e-01  -2.8260612e-01  -2.5831996e-01  -2.3168860e-01  -2.0378683e-01  -1.7562054e-01  -1.4809625e-01  -1.2199895e-01  -9.7977691e-02  -7.6537376e-02  -5.8035916e-02  -4.2686248e-02  -3.0563120e-02  -2.1614689e-02  -1.5678140e-02  -1.2497648e-02  -1.1743244e-02  -1.3030107e-02  -1.5938390e-02  -2.0033280e-02  -2.4884002e-02  -3.0080405e-02  -3.5246510e-02  -4.0050671e-02  -4.4212334e-02  -4.7506016e-02  -4.9763299e-02  -5.0872907e-02  -5.0778591e-02  -4.9475033e-02  -4.7002618e-02  -4.3442143e-02  -3.8909691e-02  -3.3550619e-02  -2.7531558e-02  -2.1030968e-02  -1.4230201e-02  -7.3064573e-03  -4.2731917e-04   6.2542735e-03   1.2604955e-02   1.8515059e-02   2.3900854e-02   2.8704549e-02   3.2892986e-02   3.6456427e-02   3.9407987e-02   4.1782766e-02   4.3634987e-02   4.5032619e-02   4.6050845e-02   4.6766399e-02   4.7253824e-02   4.7583175e-02   4.7817582e-02   4.8009568e-02   4.8197036e-02   4.8401080e-02   4.8626751e-02   4.8866172e-02   4.9102505e-02   4.9313610e-02   4.9475146e-02   4.9563705e-02   4.9560086e-02   4.9452020e-02   4.9235458e-02   4.8914308e-02   4.8499437e-02   4.8007962e-02   4.7463371e-02   4.6896323e-02   4.6345407e-02   4.5857156e-02   4.5485497e-02   4.5291055e-02   4.5339956e-02   4.5701135e-02   4.6441968e-02   4.7623056e-02   4.9293562e-02   5.1488484e-02   5.4228527e-02   5.7521500e-02   6.1362770e-02   6.5733309e-02   7.0596339e-02   7.5894817e-02   8.1551471e-02   8.7471363e-02   9.3545214e-02   9.9651903e-02   1.0566040e-01   1.1143298e-01   1.1683085e-01   1.2172130e-01   1.2598466e-01   1.2951982e-01   1.3224790e-01   1.3411412e-01   1.3508908e-01   1.3516960e-01   1.3437835e-01   1.3276137e-01   1.3038340e-01   1.2732254e-01   1.2366555e-01   1.1950439e-01   1.1493286e-01   1.1004283e-01   1.0492016e-01   9.9642003e-02   9.4276571e-02   8.8884582e-02   8.3520715e-02   7.8233749e-02   7.3065561e-02   6.8050336e-02   6.3215526e-02   5.8584552e-02   5.4179171e-02   5.0019482e-02   4.6121776e-02   4.2495975e-02   3.9144124e-02   3.6060033e-02   3.3229053e-02   3.0627172e-02   2.8220017e-02   2.5963220e-02   2.3804775e-02   2.1688787e-02   1.9559367e-02   1.7363830e-02   1.5055550e-02   1.2597412e-02   9.9654944e-03   7.1513909e-03   4.1622334e-03   1.0189887e-03  -2.2458924e-03  -5.5907400e-03  -8.9663849e-03  -1.2317625e-02  -1.5585562e-02  -1.8711400e-02  -2.1640990e-02  -2.4328740e-02  -2.6739914e-02  -2.8851153e-02  -3.0649985e-02  -3.2134489e-02  -3.3313606e-02  -3.4207455e-02  -3.4846423e-02  -3.5268503e-02  -3.5515889e-02  -3.5632421e-02  -3.5662040e-02  -3.5646928e-02  -3.5624398e-02  -3.5623470e-02  -3.5662851e-02  -3.5750836e-02  -3.5886151e-02  -3.6058987e-02  -3.6252337e-02  -3.6443898e-02  -3.6608582e-02  -3.6721597e-02  -3.6761845e-02  -3.6714838e-02  -3.6573856e-02  -3.6339169e-02  -3.6016656e-02  -3.5617031e-02  -3.5155519e-02  -3.4651044e-02  -3.4124250e-02  -3.3594626e-02  -3.3078090e-02  -3.2586443e-02  -3.2128696e-02  -3.1712313e-02  -3.1342277e-02  -3.1018232e-02  -3.0731900e-02  -3.0466437e-02  -3.0197419e-02  -2.9894196e-02  -2.9520789e-02  -2.9036321e-02  -2.8395946e-02  -2.7553566e-02  -2.6465884e-02  -2.5095365e-02  -2.3410701e-02  -2.1386355e-02  -1.9003715e-02  -1.6254793e-02  -1.3147143e-02  -9.7076848e-03  -5.9841594e-03  -2.0446306e-03   2.0240401e-03   6.1182698e-03   1.0120327e-02   1.3901827e-02   1.7329125e-02   2.0271201e-02   2.2609185e-02   2.4245344e-02   2.5109164e-02   2.5159098e-02   2.4380507e-02   2.2781532e-02   2.0388065e-02   1.7237935e-02   1.3375219e-02   8.8466715e-03   3.7012616e-03  -2.0082198e-03  -8.2233111e-03  -1.4878771e-02  -2.1901856e-02  -2.9211311e-02  -3.6716288e-02  -4.4316102e-02  -5.1901808e-02  -5.9359938e-02  -6.6577495e-02  -7.3446373e-02  -7.9865948e-02  -8.5744260e-02  -9.0999686e-02  -9.5564263e-02  -9.9387579e-02  -1.0243897e-01  -1.0470671e-01  -1.0619531e-01  -1.0692308e-01  -1.0692132e-01  -1.0623428e-01  -1.0491825e-01  -1.0303936e-01  -1.0067076e-01  -9.7891161e-02  -9.4786203e-02  -9.1452592e-02  -8.8002446e-02  -8.4565132e-02  -8.1286012e-02  -7.8323274e-02  -7.5842268e-02  -7.4002942e-02  -7.2935548e-02  -7.2704330e-02  -7.3264265e-02  -7.4417429e-02  -7.5774064e-02  -7.6723531e-02  -7.6424071e-02  -7.3824204e-02  -6.7728132e-02  -5.6911497e-02  -4.0282887e-02  -1.7070379e-02   1.3003960e-02   4.9603375e-02   9.1737493e-02   1.3780984e-01   1.8573747e-01   2.3311900e-01   2.7742535e-01   3.1619011e-01   3.4718132e-01   3.6854239e-01   3.7889583e-01   3.7740846e-01   3.6381961e-01   3.3843510e-01   3.0208992e-01   2.5608362e-01   2.0209404e-01   1.4207686e-01   7.8159246e-02   1.2534861e-02  -5.2635171e-02  -1.1531241e-01  -1.7365985e-01  -2.2610640e-01  -2.7139409e-01  -3.0860592e-01  -3.3717565e-01  -3.5688279e-01  -3.6783518e-01  -3.7044046e-01  -3.6536644e-01  -3.5349250e-01  -3.3585570e-01  -3.1359576e-01  -2.8790166e-01  -2.5996165e-01  -2.3091823e-01  -2.0182900e-01  -1.7363448e-01  -1.4713380e-01  -1.2296907e-01  -1.0161794e-01  -8.3392837e-02  -6.8446083e-02  -5.6780476e-02  -4.8265468e-02  -4.2658216e-02  -3.9627674e-02  -3.8779003e-02  -3.9676223e-02  -4.1862748e-02  -4.4880960e-02  -4.8291607e-02  -5.1691909e-02  -5.4730149e-02  -5.7115446e-02  -5.8623057e-02  -5.9096402e-02  -5.8446774e-02  -5.6650794e-02  -5.3744826e-02  -4.9816015e-02  -4.4991081e-02  -3.9424896e-02  -3.3290436e-02  -2.6770246e-02  -2.0048483e-02  -1.3302889e-02  -6.6969446e-03  -3.7293071e-04   5.5532053e-03   1.0994353e-02   1.5892338e-02   2.0216922e-02   2.3964826e-02   2.7158522e-02   2.9843495e-02   3.2083313e-02   3.3953441e-02   3.5535151e-02   3.6910004e-02   3.8154790e-02   3.9336805e-02   4.0510029e-02   4.1713267e-02   4.2970530e-02   4.4292214e-02   4.5675480e-02   4.7103927e-02   4.8547827e-02   4.9965898e-02   5.1308734e-02   5.2523362e-02   5.3557904e-02   5.4365225e-02   5.4905290e-02   5.5147573e-02   5.5074831e-02   5.4687321e-02   5.4005397e-02   5.3069721e-02   5.1939872e-02   5.0692472e-02   4.9419302e-02   4.8225048e-02   4.7223815e-02   4.6533920e-02   4.6271605e-02   4.6545203e-02   4.7450518e-02   4.9066684e-02   5.1451521e-02   5.4636387e-02   5.8621974e-02   6.3377072e-02   6.8840950e-02   7.4927997e-02   8.1532597e-02   8.8533117e-02   9.5795123e-02   1.0317507e-01   1.1052556e-01   1.1770172e-01   1.2456655e-01   1.3099444e-01   1.3687315e-01   1.4210544e-01   1.4661097e-01   1.5032807e-01   1.5321488e-01   1.5524898e-01   1.5642558e-01   1.5675565e-01   1.5626470e-01   1.5499204e-01   1.5298919e-01   1.5031690e-01   1.4704156e-01   1.4323251e-01   1.3896107e-01   1.3430027e-01   1.2932409e-01   1.2410538e-01   1.1871290e-01   1.1320986e-01   1.0765490e-01   1.0210402e-01   9.6611109e-02   9.1225996e-02   8.5991423e-02   8.0940749e-02   7.6097529e-02   7.1476660e-02   6.7085680e-02   6.2924955e-02   5.8986999e-02   5.5256682e-02   5.1713631e-02   4.8336085e-02   4.5103989e-02   4.1999588e-02   3.9005747e-02   3.6104161e-02   3.3275772e-02   3.0503463e-02   2.7774724e-02   2.5082439e-02   2.2424467e-02   1.9803770e-02   1.7229390e-02   1.4717353e-02   1.2290504e-02   9.9762668e-03   7.8023259e-03   5.7920910e-03   3.9619592e-03   2.3206707e-03   8.6946962e-04  -3.9846047e-04  -1.4993495e-03  -2.4593022e-03  -3.3125104e-03  -4.0977152e-03  -4.8545918e-03  -5.6213119e-03  -6.4330494e-03  -7.3203267e-03  -8.3067591e-03  -9.4069607e-03  -1.0625746e-02  -1.1959007e-02  -1.3395552e-02  -1.4918598e-02  -1.6506207e-02  -1.8131367e-02  -1.9762990e-02  -2.1368196e-02  -2.2915057e-02  -2.4374622e-02  -2.5721426e-02  -2.6932798e-02  -2.7988391e-02  -2.8871002e-02  -2.9567876e-02  -3.0071154e-02  -3.0377519e-02  -3.0488213e-02  -3.0410031e-02  -3.0156812e-02  -2.9750346e-02  -2.9219620e-02  -2.8598056e-02  -2.7919676e-02  -2.7215703e-02  -2.6512288e-02  -2.5828633e-02  -2.5174337e-02  -2.4546069e-02  -2.3925399e-02  -2.3279751e-02  -2.2566665e-02  -2.1739635e-02  -2.0753085e-02  -1.9565189e-02  -1.8139001e-02  -1.6443338e-02  -1.4454468e-02  -1.2158457e-02  -9.5532269e-03  -6.6496140e-03  -3.4718100e-03  -5.8218562e-05   3.5368412e-03   7.2415373e-03   1.0966892e-02   1.4610208e-02   1.8060515e-02   2.1203777e-02   2.3927021e-02   2.6122937e-02   2.7696732e-02   2.8574219e-02   2.8707405e-02   2.8074331e-02   2.6673480e-02   2.4516116e-02   2.1620029e-02   1.8006369e-02   1.3699241e-02   8.7265406e-03   3.1206722e-03  -3.0810628e-03  -9.8354615e-03  -1.7090747e-02  -2.4782431e-02  -3.2829347e-02  -4.1131961e-02  -4.9574013e-02  -5.8026386e-02  -6.6351288e-02  -7.4406491e-02  -8.2050694e-02  -8.9150464e-02  -9.5587882e-02  -1.0126711e-01  -1.0611810e-01  -1.1009722e-01  -1.1318594e-01  -1.1538950e-01  -1.1673573e-01  -1.1727298e-01  -1.1706635e-01  -1.1619317e-01  -1.1473918e-01  -1.1279620e-01  -1.1046059e-01  -1.0783203e-01  -1.0501312e-01  -1.0211096e-01  -9.9240390e-02  -9.6527324e-02  -9.4110620e-02  -9.2139819e-02  -9.0763736e-02  -9.0105394e-02  -9.0223730e-02  -9.1067627e-02  -9.2428611e-02  -9.3896859e-02  -9.4827246e-02  -9.4328088e-02  -9.1288560e-02  -8.4458331e-02  -7.2584866e-02  -5.4598235e-02  -2.9812562e-02   1.9012513e-03   4.0014115e-02   8.3331164e-02   1.3007445e-01   1.7803271e-01   2.2474725e-01   2.6770564e-01   3.0452271e-01   3.3309589e-01   3.5172791e-01   3.5921371e-01   3.5489106e-01   3.3865614e-01   3.1094708e-01   2.7269933e-01   2.2527748e-01   1.7038971e-01   1.0999238e-01   4.6190294e-02  -1.8862926e-02  -8.3060871e-02  -1.4443188e-01  -2.0121300e-01  -2.5190738e-01  -2.9532478e-01  -3.3060683e-01  -3.5723819e-01  -3.7504335e-01  -3.8416872e-01  -3.8505115e-01  -3.7837633e-01  -3.6503141e-01  -3.4605501e-01  -3.2258595e-01  -2.9581190e-01  -2.6691938e-01  -2.3704782e-01  -2.0725007e-01  -1.7846118e-01  -1.5147583e-01  -1.2693365e-01  -1.0531124e-01  -8.6919956e-02  -7.1910428e-02  -6.0283647e-02  -5.1906959e-02  -4.6533083e-02  -4.3821108e-02  -4.3358919e-02  -4.4686738e-02  -4.7321451e-02  -5.0780623e-02  -5.4604253e-02  -5.8372682e-02  -6.1720120e-02  -6.4344134e-02  -6.6011936e-02  -6.6563862e-02  -6.5913138e-02  -6.4040880e-02  -6.0986960e-02  -5.6839480e-02  -5.1725462e-02  -4.5803025e-02  -3.9253488e-02  -3.2271922e-02  -2.5056388e-02  -1.7797612e-02  -1.0670973e-02  -3.8309463e-03   2.5933420e-03   8.5022469e-03   1.3828588e-02   1.8538087e-02   2.2626688e-02   2.6115640e-02   2.9046133e-02   3.1474692e-02   3.3469265e-02   3.5105077e-02   3.6459353e-02   3.7605036e-02   3.8605102e-02   3.9509574e-02   4.0355765e-02   4.1169845e-02   4.1967492e-02   4.2753812e-02   4.3524417e-02   4.4268761e-02   4.4974941e-02   4.5633909e-02   4.6241308e-02   4.6797224e-02   4.7305860e-02   4.7776411e-02   4.8224478e-02   4.8672832e-02   4.9151231e-02   4.9695622e-02   5.0347432e-02   5.1153506e-02   5.2166094e-02   5.3441374e-02   5.5035873e-02   5.7001824e-02   5.9383048e-02   6.2211995e-02   6.5507450e-02   6.9272231e-02   7.3490595e-02   7.8125803e-02   8.3118869e-02   8.8389530e-02   9.3839551e-02   9.9357276e-02   1.0482182e-01   1.1010644e-01   1.1508233e-01   1.1962378e-01   1.2361448e-01   1.2695345e-01   1.2955895e-01   1.3137043e-01   1.3234908e-01   1.3247885e-01   1.3176811e-01   1.3025048e-01   1.2798299e-01   1.2504169e-01   1.2151690e-01   1.1750912e-01   1.1312501e-01   1.0847218e-01   1.0365335e-01   9.8760723e-02   9.3872526e-02   8.9052346e-02   8.4350667e-02   7.9806740e-02   7.5449203e-02   7.1295505e-02   6.7351704e-02   6.3614117e-02   6.0072450e-02   5.6712685e-02   5.3518622e-02   5.0472304e-02   4.7554460e-02   4.4745878e-02   4.2029468e-02   3.9391803e-02   3.6823248e-02   3.4316840e-02   3.1866995e-02   2.9469290e-02   2.7121545e-02   2.4824615e-02   2.2581308e-02   2.0394067e-02   1.8263440e-02   1.6188298e-02   1.4167044e-02   1.2198157e-02   1.0278966e-02   8.4035100e-03   6.5616183e-03   4.7402440e-03   2.9262096e-03   1.1089309e-03  -7.1799735e-04  -2.5565458e-03  -4.4043079e-03  -6.2538063e-03  -8.0913949e-03  -9.8970525e-03  -1.1645767e-02  -1.3309953e-02  -1.4861716e-02  -1.6274237e-02  -1.7522473e-02  -1.8583930e-02  -1.9440021e-02  -2.0077816e-02  -2.0491403e-02  -2.0682145e-02  -2.0657925e-02  -2.0432620e-02  -2.0026981e-02  -1.9470200e-02  -1.8800285e-02  -1.8062064e-02  -1.7303121e-02  -1.6569346e-02  -1.5901990e-02  -1.5336543e-02  -1.4901970e-02  -1.4619047e-02  -1.4498102e-02  -1.4537331e-02  -1.4722880e-02  -1.5031085e-02  -1.5431441e-02  -1.5888144e-02  -1.6359624e-02  -1.6797346e-02  -1.7145268e-02  -1.7340360e-02  -1.7314093e-02  -1.6995143e-02  -1.6313644e-02  -1.5206909e-02  -1.3625945e-02  -1.1541497e-02  -8.9480421e-03  -5.8646156e-03  -2.3326408e-03   1.5878584e-03   5.8221036e-03   1.0283941e-02   1.4879174e-02   1.9509153e-02   2.4074181e-02   2.8475902e-02   3.2618139e-02   3.6406811e-02   3.9750431e-02   4.2562252e-02   4.4763750e-02   4.6288133e-02   4.7082554e-02   4.7108920e-02   4.6344880e-02   4.4786911e-02   4.2455533e-02   3.9400125e-02   3.5699536e-02   3.1456326e-02   2.6786180e-02   2.1806210e-02   1.6624854e-02   1.1333790e-02   6.0014912e-03   6.6903032e-04  -4.6504863e-03  -9.9684338e-03  -1.5314058e-02  -2.0726118e-02  -2.6244182e-02  -3.1900967e-02  -3.7716331e-02  -4.3692481e-02  -4.9810459e-02  -5.6029166e-02  -6.2287714e-02  -6.8510138e-02  -7.4610656e-02  -8.0498409e-02  -8.6081268e-02  -9.1268752e-02  -9.5974737e-02  -1.0012055e-01  -1.0363796e-01  -1.0647123e-01  -1.0857826e-01  -1.0993222e-01  -1.1052523e-01  -1.1037501e-01  -1.0953283e-01  -1.0808945e-01  -1.0617683e-01  -1.0396607e-01  -1.0166146e-01  -9.9487282e-02  -9.7662409e-02  -9.6361064e-02  -9.5663574e-02  -9.5503525e-02  -9.5617680e-02  -9.5506133e-02  -9.4413800e-02  -9.1348547e-02  -8.5150989e-02  -7.4622812e-02  -5.8704110e-02  -3.6669803e-02  -8.3002307e-03   2.6016833e-02   6.5274498e-02   1.0792007e-01   1.5198963e-01   1.9527513e-01   2.3549945e-01   2.7048232e-01   2.9828540e-01   3.1732863e-01   3.2647326e-01   3.2507008e-01   3.1297530e-01   2.9053761e-01   2.5855986e-01   2.1823898e-01   1.7108815e-01   1.1884758e-01   6.3390822e-02   6.6335506e-03  -4.9551257e-02  -1.0340931e-01  -1.5337074e-01  -1.9810342e-01  -2.3655148e-01  -2.6795742e-01  -2.9186858e-01  -3.0812981e-01  -3.1686523e-01  -3.1845070e-01  -3.1347825e-01  -3.0271391e-01  -2.8705184e-01  -2.6746768e-01  -2.4497427e-01  -2.2058076e-01  -1.9525523e-01  -1.6989119e-01  -1.4527980e-01  -1.2208963e-01  -1.0085478e-01  -8.1970792e-02  -6.5696445e-02  -5.2159894e-02  -4.1368935e-02  -3.3225382e-02  -2.7542610e-02  -2.4064708e-02  -2.2485389e-02  -2.2465240e-02  -2.3647639e-02  -2.5674494e-02  -2.8201719e-02  -3.0913011e-02  -3.3530373e-02  -3.5820487e-02  -3.7597179e-02  -3.8721319e-02  -3.9099519e-02  -3.8681951e-02  -3.7458478e-02  -3.5452753e-02  -3.2715437e-02  -2.9318178e-02  -2.5348938e-02  -2.0908004e-02  -1.6103591e-02  -1.1046264e-02  -5.8428958e-03  -5.9207288e-04   4.6177692e-03   9.7083717e-03   1.4611668e-02   1.9270383e-02   2.3638423e-02   2.7680352e-02   3.1370007e-02   3.4688733e-02   3.7623895e-02   4.0168017e-02   4.2318464e-02   4.4077391e-02   4.5451564e-02   4.6451941e-02   4.7093630e-02   4.7397118e-02   4.7390388e-02   4.7110102e-02   4.6600414e-02   4.5909880e-02   4.5088231e-02   4.4184436e-02   4.3245966e-02   4.2318012e-02   4.1441753e-02   4.0652217e-02   3.9977253e-02   3.9438369e-02   3.9052695e-02   3.8834711e-02   3.8797091e-02   3.8950890e-02   3.9305579e-02   3.9869385e-02   4.0649908e-02   4.1654246e-02   4.2887817e-02   4.4352356e-02   4.6044642e-02   4.7957022e-02   5.0079171e-02   5.2399332e-02   5.4903910e-02   5.7576169e-02   6.0395799e-02   6.3339980e-02   6.6384961e-02   6.9506520e-02   7.2678424e-02   7.5870062e-02   7.9045379e-02   8.2164015e-02   8.5183666e-02   8.8062063e-02   9.0757674e-02   9.3229568e-02   9.5437697e-02   9.7344477e-02   9.8917082e-02   1.0012881e-01   1.0095851e-01   1.0138847e-01   1.0140221e-01   1.0098355e-01   1.0011762e-01   9.8793025e-02   9.7003236e-02   9.4747038e-02   9.2028742e-02   8.8859175e-02   8.5257261e-02   8.1251563e-02   7.6881158e-02   7.2195168e-02   6.7250834e-02   6.2111245e-02   5.6843876e-02   5.1519514e-02   4.6210128e-02   4.0985269e-02   3.5908323e-02   3.1034268e-02   2.6409186e-02   2.2070546e-02   1.8047326e-02   1.4359964e-02   1.1020622e-02   8.0339892e-03   5.3983569e-03   3.1065748e-03   1.1465074e-03  -4.9920914e-04  -1.8537495e-03  -2.9463727e-03  -3.8121764e-03  -4.4918278e-03  -5.0317062e-03  -5.4836630e-03  -5.9027406e-03  -6.3425940e-03  -6.8505434e-03  -7.4641810e-03  -8.2097986e-03  -9.1019081e-03  -1.0143204e-02  -1.1324774e-02  -1.2626725e-02  -1.4019724e-02  -1.5468077e-02  -1.6934020e-02  -1.8381442e-02  -1.9777686e-02  -2.1094008e-02  -2.2306071e-02  -2.3394973e-02  -2.4348230e-02  -2.5159738e-02  -2.5828250e-02  -2.6355012e-02  -2.6742126e-02  -2.6992849e-02  -2.7113245e-02  -2.7113163e-02  -2.7005419e-02  -2.6803869e-02  -2.6521680e-02  -2.6170608e-02  -2.5761088e-02  -2.5302182e-02  -2.4800774e-02  -2.4260487e-02  -2.3681352e-02  -2.3061146e-02  -2.2398285e-02  -2.1694670e-02  -2.0956409e-02  -2.0191746e-02  -1.9407507e-02  -1.8605646e-02  -1.7780560e-02  -1.6917289e-02  -1.5991021e-02  -1.4968398e-02  -1.3810655e-02  -1.2478216e-02  -1.0936269e-02  -9.1599523e-03  -7.1372874e-03  -4.8690551e-03  -2.3667498e-03   3.4938257e-04   3.2510839e-03   6.3021506e-03   9.4588819e-03   1.2671151e-02   1.5883690e-02   1.9037079e-02   2.2068587e-02   2.4914033e-02   2.7511306e-02   2.9804237e-02   3.1744661e-02   3.3292090e-02   3.4412629e-02   3.5079589e-02   3.5276100e-02   3.4996908e-02   3.4246224e-02   3.3031576e-02   3.1356590e-02   2.9215804e-02   2.6592693e-02   2.3460594e-02   1.9785916e-02   1.5533173e-02   1.0671393e-02   5.1816155e-03  -9.3511691e-04  -7.6507923e-03  -1.4906473e-02  -2.2612553e-02  -3.0652733e-02  -3.8889690e-02  -4.7170713e-02  -5.5333251e-02  -6.3211198e-02  -7.0642075e-02  -7.7474300e-02  -8.3573416e-02  -8.8826689e-02  -9.3146420e-02  -9.6472626e-02  -9.8775407e-02  -1.0005691e-01  -1.0035271e-01  -9.9733017e-02  -9.8304035e-02  -9.6209028e-02  -9.3627584e-02  -9.0772456e-02  -8.7883831e-02  -8.5218460e-02  -8.3028835e-02  -8.1530966e-02  -8.0866181e-02  -8.1064656e-02  -8.2014573e-02  -8.3436166e-02  -8.4858822e-02  -8.5603630e-02  -8.4780655e-02  -8.1312565e-02  -7.3991433e-02  -6.1569714e-02  -4.2883267e-02  -1.6999753e-02   1.6622481e-02   5.7988616e-02   1.0646232e-01   1.6072543e-01   2.1881531e-01   2.7823804e-01   3.3614168e-01   3.8952524e-01   4.3545707e-01   4.7127970e-01   4.9478416e-01   5.0434200e-01   4.9898836e-01   4.7845632e-01   4.4316694e-01   3.9418170e-01   3.3312440e-01   2.6207986e-01   1.8347689e-01   9.9962919e-02   1.4277583e-02  -7.0868153e-02  -1.5290272e-01  -2.2949151e-01  -2.9861900e-01  -3.5865204e-01  -4.0838086e-01  -4.4703663e-01  -4.7428715e-01  -4.9021444e-01  -4.9527819e-01  -4.9026837e-01  -4.7624926e-01  -4.5449745e-01  -4.2643719e-01  -3.9357580e-01  -3.5744129e-01  -3.1952362e-01  -2.8122151e-01  -2.4379675e-01  -2.0833911e-01  -1.7574350e-01  -1.4669900e-01  -1.2168724e-01  -1.0098723e-01  -8.4685091e-02  -7.2689064e-02  -6.4750101e-02  -6.0487407e-02  -5.9417414e-02  -6.0983843e-02  -6.4586902e-02  -6.9610606e-02  -7.5447689e-02  -8.1521932e-02  -8.7307765e-02  -9.2346396e-02  -9.6257755e-02  -9.8748488e-02  -9.9616878e-02  -9.8754998e-02  -9.6147043e-02  -9.1862516e-02  -8.6044212e-02  -7.8892523e-02  -7.0648560e-02  -6.1578512e-02  -5.1960241e-02  -4.2071290e-02  -3.2177150e-02  -2.2519894e-02  -1.3308466e-02  -4.7122489e-03   3.1415613e-03   1.0168131e-02   1.6324326e-02   2.1607331e-02   2.6051403e-02   2.9721574e-02   3.2704354e-02   3.5097335e-02   3.7000157e-02   3.8508024e-02   3.9706955e-02   4.0669229e-02   4.1448938e-02   4.2079356e-02   4.2573601e-02   4.2928622e-02   4.3131372e-02   4.3165025e-02   4.3013582e-02   4.2665140e-02   4.2115086e-02   4.1369427e-02   4.0447220e-02   3.9381044e-02   3.8215569e-02   3.7005779e-02   3.5816391e-02   3.4722129e-02   3.3807082e-02   3.3161947e-02   3.2879657e-02   3.3051219e-02   3.3763182e-02   3.5096240e-02   3.7123212e-02   3.9905421e-02   4.3488181e-02   4.7896913e-02   5.3134922e-02   5.9182343e-02   6.5994748e-02   7.3500796e-02   8.1600213e-02   9.0164565e-02   9.9042133e-02   1.0806543e-01   1.1705859e-01   1.2584298e-01   1.3424168e-01   1.4208449e-01   1.4921432e-01   1.5549379e-01   1.6081005e-01   1.6507696e-01   1.6823550e-01   1.7025424e-01   1.7113014e-01   1.7088890e-01   1.6958368e-01   1.6729237e-01   1.6411370e-01   1.6016289e-01   1.5556726e-01   1.5046160e-01   1.4498281e-01   1.3926432e-01   1.3343055e-01   1.2759225e-01   1.2184302e-01   1.1625757e-01   1.1089090e-01   1.0577788e-01   1.0093330e-01   9.6353878e-02   9.2022369e-02   8.7912948e-02   8.3996228e-02   8.0242276e-02   7.6621440e-02   7.3104552e-02   6.9663909e-02   6.6274680e-02   6.2915567e-02   5.9568343e-02   5.6216941e-02   5.2847357e-02   4.9449312e-02   4.6019219e-02   4.2562778e-02   3.9095822e-02   3.5643353e-02   3.2237703e-02   2.8916578e-02   2.5720965e-02   2.2692517e-02   1.9870207e-02   1.7286536e-02   1.4964105e-02   1.2913443e-02   1.1132542e-02   9.6076210e-03   8.3141001e-03   7.2175330e-03   6.2753805e-03   5.4403720e-03   4.6650309e-03   3.9060329e-03   3.1271196e-03   2.3004259e-03   1.4072607e-03   4.3908392e-04  -6.0188105e-04  -1.7035332e-03  -2.8469835e-03  -4.0113897e-03  -5.1784977e-03  -6.3345886e-03  -7.4696993e-03  -8.5762608e-03  -9.6487047e-03  -1.0683343e-02  -1.1677315e-02  -1.2626825e-02  -1.3526027e-02  -1.4367495e-02  -1.5143735e-02  -1.5848378e-02  -1.6476304e-02  -1.7022873e-02  -1.7483078e-02  -1.7851208e-02  -1.8121123e-02  -1.8286488e-02  -1.8339694e-02  -1.8269114e-02  -1.8056064e-02  -1.7673360e-02  -1.7086543e-02  -1.6257533e-02  -1.5149150e-02  -1.3728852e-02  -1.1971014e-02  -9.8583545e-03  -7.3837577e-03  -4.5525479e-03  -1.3837367e-03   2.0904887e-03   5.8257019e-03   9.7648803e-03   1.3836666e-02   1.7953689e-02   2.2012812e-02   2.5898709e-02   2.9490440e-02   3.2668649e-02   3.5321175e-02   3.7347158e-02   3.8661506e-02   3.9200946e-02   3.8930611e-02   3.7848333e-02   3.5984144e-02   3.3394737e-02   3.0155162e-02   2.6350396e-02   2.2067613e-02   1.7388642e-02   1.2382814e-02   7.1017205e-03   1.5775442e-03  -4.1746583e-03  -1.0151909e-02  -1.6357310e-02  -2.2794359e-02  -2.9461536e-02  -3.6346405e-02  -4.3419639e-02  -5.0630592e-02  -5.7906181e-02  -6.5153685e-02  -7.2266044e-02  -7.9127372e-02  -8.5617742e-02  -9.1617685e-02  -9.7012966e-02  -1.0169993e-01  -1.0559108e-01  -1.0862000e-01  -1.1074473e-01  -1.1194940e-01  -1.1224453e-01  -1.1166675e-01  -1.1027816e-01  -1.0816521e-01  -1.0543800e-01  -1.0223107e-01  -9.8705239e-02  -9.5048958e-02  -9.1477168e-02  -8.8226033e-02  -8.5539763e-02  -8.3644777e-02  -8.2709636e-02  -8.2794868e-02  -8.3799442e-02  -8.5409591e-02  -8.7056782e-02  -8.7897001e-02  -8.6828714e-02  -8.2566413e-02  -7.3777748e-02  -5.9274403e-02  -3.8224473e-02  -1.0338201e-02   2.4018464e-02   6.3806346e-02   1.0738774e-01   1.5266981e-01   1.9728591e-01   2.3878689e-01   2.7482133e-01   3.0329210e-01   3.2248218e-01   3.3114589e-01   3.2856432e-01   3.1456587e-01   2.8951404e-01   2.5426532e-01   2.1010258e-01   1.5865106e-01   1.0178408e-01   4.1524325e-02  -2.0054459e-02  -8.0921597e-02  -1.3917513e-01  -1.9311415e-01  -2.4129447e-01  -2.8256705e-01  -3.1610137e-01  -3.4139497e-01  -3.5826970e-01  -3.6685438e-01  -3.6755551e-01  -3.6101815e-01  -3.4808101e-01  -3.2972927e-01  -3.0704685e-01  -2.8116887e-01  -2.5323512e-01  -2.2434634e-01  -1.9552576e-01  -1.6768747e-01  -1.4161199e-01  -1.1792862e-01  -9.7104656e-02  -7.9442364e-02  -6.5084062e-02  -5.4024569e-02  -4.6129378e-02  -4.1156169e-02  -3.8777318e-02  -3.8602237e-02  -4.0199695e-02  -4.3120283e-02  -4.6917748e-02  -5.1167272e-02  -5.5479991e-02  -5.9514198e-02  -6.2983573e-02  -6.5662464e-02  -6.7388198e-02  -6.8060141e-02  -6.7635484e-02  -6.6122660e-02  -6.3573728e-02  -6.0076485e-02  -5.5746389e-02  -5.0718461e-02  -4.5139261e-02  -3.9158854e-02  -3.2923629e-02  -2.6571413e-02  -2.0228940e-02  -1.4009961e-02  -8.0126543e-03  -2.3169397e-03   3.0166124e-03   7.9454032e-03
